4497.73989,0.01858
4495.81118,0.01854
4493.88248,0.01851
4491.95377,0.01851
4490.02507,0.01852
4488.09636,0.01855
4486.16766,0.01853
4484.23895,0.01846
4482.31025,0.01841
4480.38154,0.01838
4478.45284,0.01835
4476.52413,0.01834
4474.59543,0.01834
4472.66672,0.01832
4470.73802,0.01830
4468.80931,0.01826
4466.88061,0.01821
4464.95190,0.01818
4463.02320,0.01819
4461.09449,0.01819
4459.16579,0.01819
4457.23708,0.01818
4455.30838,0.01813
4453.37967,0.01806
4451.45097,0.01799
4449.52226,0.01796
4447.59356,0.01796
4445.66485,0.01797
4443.73615,0.01796
4441.80744,0.01796
4439.87874,0.01796
4437.95003,0.01796
4436.02133,0.01797
4434.09262,0.01798
4432.16392,0.01798
4430.23522,0.01793
4428.30651,0.01790
4426.37781,0.01790
4424.44910,0.01793
4422.52040,0.01793
4420.59169,0.01791
4418.66299,0.01787
4416.73428,0.01783
4414.80558,0.01779
4412.87687,0.01776
4410.94817,0.01775
4409.01946,0.01775
4407.09076,0.01775
4405.16205,0.01776
4403.23335,0.01777
4401.30464,0.01777
4399.37594,0.01774
4397.44723,0.01770
4395.51853,0.01767
4393.58982,0.01763
4391.66112,0.01759
4389.73241,0.01758
4387.80371,0.01759
4385.87500,0.01761
4383.94630,0.01759
4382.01759,0.01757
4380.08889,0.01755
4378.16018,0.01751
4376.23148,0.01748
4374.30277,0.01748
4372.37407,0.01747
4370.44536,0.01747
4368.51666,0.01748
4366.58795,0.01751
4364.65925,0.01753
4362.73054,0.01752
4360.80184,0.01748
4358.87313,0.01744
4356.94443,0.01740
4355.01572,0.01738
4353.08702,0.01737
4351.15831,0.01740
4349.22961,0.01741
4347.30090,0.01739
4345.37220,0.01738
4343.44349,0.01738
4341.51479,0.01737
4339.58608,0.01737
4337.65738,0.01736
4335.72867,0.01734
4333.79997,0.01730
4331.87126,0.01727
4329.94256,0.01729
4328.01385,0.01731
4326.08515,0.01730
4324.15644,0.01725
4322.22774,0.01720
4320.29903,0.01718
4318.37033,0.01717
4316.44162,0.01719
4314.51292,0.01721
4312.58421,0.01724
4310.65551,0.01724
4308.72680,0.01723
4306.79810,0.01721
4304.86939,0.01721
4302.94069,0.01720
4301.01199,0.01718
4299.08328,0.01717
4297.15458,0.01718
4295.22587,0.01718
4293.29717,0.01716
4291.36846,0.01713
4289.43976,0.01712
4287.51105,0.01711
4285.58235,0.01707
4283.65364,0.01704
4281.72494,0.01703
4279.79623,0.01704
4277.86753,0.01705
4275.93882,0.01703
4274.01012,0.01699
4272.08141,0.01696
4270.15271,0.01694
4268.22400,0.01695
4266.29530,0.01695
4264.36659,0.01695
4262.43789,0.01695
4260.50918,0.01692
4258.58048,0.01688
4256.65177,0.01684
4254.72307,0.01683
4252.79436,0.01684
4250.86566,0.01683
4248.93695,0.01680
4247.00825,0.01679
4245.07954,0.01679
4243.15084,0.01680
4241.22213,0.01679
4239.29343,0.01676
4237.36472,0.01672
4235.43602,0.01671
4233.50731,0.01674
4231.57861,0.01676
4229.64990,0.01676
4227.72120,0.01673
4225.79249,0.01671
4223.86379,0.01670
4221.93508,0.01668
4220.00638,0.01665
4218.07767,0.01664
4216.14897,0.01664
4214.22026,0.01663
4212.29156,0.01663
4210.36285,0.01662
4208.43415,0.01660
4206.50544,0.01658
4204.57674,0.01658
4202.64803,0.01659
4200.71933,0.01659
4198.79062,0.01658
4196.86192,0.01656
4194.93321,0.01654
4193.00451,0.01651
4191.07580,0.01648
4189.14710,0.01647
4187.21839,0.01648
4185.28969,0.01648
4183.36098,0.01646
4181.43228,0.01644
4179.50357,0.01643
4177.57487,0.01643
4175.64616,0.01641
4173.71746,0.01638
4171.78875,0.01639
4169.86005,0.01641
4167.93135,0.01642
4166.00264,0.01641
4164.07394,0.01637
4162.14523,0.01634
4160.21653,0.01632
4158.28782,0.01634
4156.35912,0.01636
4154.43041,0.01634
4152.50171,0.01632
4150.57300,0.01631
4148.64430,0.01632
4146.71559,0.01634
4144.78689,0.01634
4142.85818,0.01631
4140.92948,0.01626
4139.00077,0.01623
4137.07207,0.01622
4135.14336,0.01622
4133.21466,0.01623
4131.28595,0.01624
4129.35725,0.01623
4127.42854,0.01621
4125.49984,0.01621
4123.57113,0.01621
4121.64243,0.01621
4119.71372,0.01620
4117.78502,0.01619
4115.85631,0.01616
4113.92761,0.01616
4111.99890,0.01617
4110.07020,0.01615
4108.14149,0.01612
4106.21279,0.01611
4104.28408,0.01612
4102.35538,0.01613
4100.42667,0.01616
4098.49797,0.01617
4096.56926,0.01615
4094.64056,0.01613
4092.71185,0.01610
4090.78315,0.01608
4088.85444,0.01608
4086.92574,0.01607
4084.99703,0.01603
4083.06833,0.01600
4081.13962,0.01599
4079.21092,0.01601
4077.28221,0.01602
4075.35351,0.01600
4073.42480,0.01595
4071.49610,0.01591
4069.56739,0.01590
4067.63869,0.01589
4065.70998,0.01587
4063.78128,0.01585
4061.85257,0.01584
4059.92387,0.01583
4057.99516,0.01583
4056.06646,0.01584
4054.13775,0.01581
4052.20905,0.01578
4050.28034,0.01578
4048.35164,0.01580
4046.42293,0.01579
4044.49423,0.01576
4042.56552,0.01574
4040.63682,0.01575
4038.70812,0.01575
4036.77941,0.01572
4034.85071,0.01570
4032.92200,0.01569
4030.99330,0.01568
4029.06459,0.01568
4027.13589,0.01568
4025.20718,0.01566
4023.27848,0.01564
4021.34977,0.01561
4019.42107,0.01557
4017.49236,0.01554
4015.56366,0.01555
4013.63495,0.01558
4011.70625,0.01557
4009.77754,0.01553
4007.84884,0.01549
4005.92013,0.01548
4003.99143,0.01549
4002.06272,0.01550
4000.13402,0.01551
3998.20531,0.01549
3996.27661,0.01543
3994.34790,0.01536
3992.41920,0.01534
3990.49049,0.01535
3988.56179,0.01535
3986.63308,0.01533
3984.70438,0.01530
3982.77567,0.01530
3980.84697,0.01532
3978.91826,0.01532
3976.98956,0.01530
3975.06085,0.01527
3973.13215,0.01526
3971.20344,0.01526
3969.27474,0.01527
3967.34603,0.01527
3965.41733,0.01524
3963.48862,0.01520
3961.55992,0.01520
3959.63121,0.01523
3957.70251,0.01522
3955.77380,0.01517
3953.84510,0.01513
3951.91639,0.01506
3949.98769,0.01499
3948.05898,0.01500
3946.13028,0.01504
3944.20157,0.01499
3942.27287,0.01495
3940.34416,0.01503
3938.41546,0.01511
3936.48675,0.01509
3934.55805,0.01492
3932.62934,0.01473
3930.70064,0.01476
3928.77193,0.01489
3926.84323,0.01486
3924.91452,0.01473
3922.98582,0.01467
3921.05711,0.01456
3919.12841,0.01435
3917.19970,0.01432
3915.27100,0.01460
3913.34229,0.01490
3911.41359,0.01498
3909.48489,0.01485
3907.55618,0.01441
3905.62748,0.01364
3903.69877,0.01301
3901.77007,0.01292
3899.84136,0.01332
3897.91266,0.01400
3895.98395,0.01447
3894.05525,0.01427
3892.12654,0.01381
3890.19784,0.01377
3888.26913,0.01370
3886.34043,0.01333
3884.41172,0.01333
3882.48302,0.01358
3880.55431,0.01368
3878.62561,0.01395
3876.69690,0.01411
3874.76820,0.01383
3872.83949,0.01321
3870.91079,0.01255
3868.98208,0.01254
3867.05338,0.01293
3865.12467,0.01306
3863.19597,0.01324
3861.26726,0.01368
3859.33856,0.01381
3857.40985,0.01271
3855.48115,0.01026
3853.55244,0.00889
3851.62374,0.01045
3849.69503,0.01286
3847.76633,0.01399
3845.83762,0.01396
3843.90892,0.01350
3841.98021,0.01286
3840.05151,0.01187
3838.12280,0.01117
3836.19410,0.01160
3834.26539,0.01249
3832.33669,0.01302
3830.40798,0.01337
3828.47928,0.01358
3826.55057,0.01354
3824.62187,0.01307
3822.69316,0.01215
3820.76446,0.01168
3818.83575,0.01171
3816.90705,0.01157
3814.97834,0.01202
3813.04964,0.01318
3811.12093,0.01366
3809.19223,0.01302
3807.26352,0.01229
3805.33482,0.01213
3803.40611,0.01173
3801.47741,0.01133
3799.54870,0.01192
3797.62000,0.01275
3795.69129,0.01320
3793.76259,0.01357
3791.83388,0.01379
3789.90518,0.01381
3787.97647,0.01372
3786.04777,0.01359
3784.11906,0.01349
3782.19036,0.01333
3780.26166,0.01313
3778.33295,0.01320
3776.40425,0.01351
3774.47554,0.01359
3772.54684,0.01322
3770.61813,0.01274
3768.68943,0.01263
3766.76072,0.01281
3764.83202,0.01301
3762.90331,0.01307
3760.97461,0.01280
3759.04590,0.01253
3757.11720,0.01249
3755.18849,0.01190
3753.25979,0.01037
3751.33108,0.00910
3749.40238,0.00923
3747.47367,0.00952
3745.54497,0.00896
3743.61626,0.00939
3741.68756,0.01117
3739.75885,0.01196
3737.83015,0.01124
3735.90144,0.01051
3733.97274,0.01058
3732.04403,0.01128
3730.11533,0.01213
3728.18662,0.01249
3726.25792,0.01237
3724.32921,0.01231
3722.40051,0.01240
3720.47180,0.01256
3718.54310,0.01272
3716.61439,0.01260
3714.68569,0.01186
3712.75698,0.01089
3710.82828,0.01077
3708.89957,0.01158
3706.97087,0.01240
3705.04216,0.01258
3703.11346,0.01229
3701.18475,0.01219
3699.25605,0.01244
3697.32734,0.01265
3695.39864,0.01253
3693.46993,0.01195
3691.54123,0.01082
3689.61252,0.00982
3687.68382,0.01009
3685.75511,0.01131
3683.82641,0.01207
3681.89770,0.01200
3679.96900,0.01135
3678.04029,0.01006
3676.11159,0.00890
3674.18288,0.00892
3672.25418,0.00919
3670.32547,0.00923
3668.39677,0.01002
3666.46806,0.01117
3664.53936,0.01170
3662.61065,0.01172
3660.68195,0.01151
3658.75324,0.01098
3656.82454,0.01042
3654.89583,0.01029
3652.96713,0.00989
3651.03842,0.00873
3649.10972,0.00811
3647.18102,0.00895
3645.25231,0.01023
3643.32361,0.01093
3641.39490,0.01105
3639.46620,0.01101
3637.53749,0.01094
3635.60879,0.01076
3633.68008,0.01035
3631.75138,0.00934
3629.82267,0.00820
3627.89397,0.00837
3625.96526,0.00961
3624.03656,0.01028
3622.10785,0.00991
3620.17915,0.00922
3618.25044,0.00907
3616.32174,0.00930
3614.39303,0.00931
3612.46433,0.00908
3610.53562,0.00886
3608.60692,0.00890
3606.67821,0.00933
3604.74951,0.00974
3602.82080,0.00978
3600.89210,0.00966
3598.96339,0.00956
3597.03469,0.00942
3595.10598,0.00927
3593.17728,0.00922
3591.24857,0.00900
3589.31987,0.00849
3587.39116,0.00821
3585.46246,0.00851
3583.53375,0.00893
3581.60505,0.00908
3579.67634,0.00906
3577.74764,0.00902
3575.81893,0.00896
3573.89023,0.00888
3571.96152,0.00871
3570.03282,0.00824
3568.10411,0.00768
3566.17541,0.00759
3564.24670,0.00795
3562.31800,0.00825
3560.38929,0.00834
3558.46059,0.00836
3556.53188,0.00834
3554.60318,0.00823
3552.67447,0.00809
3550.74577,0.00801
3548.81706,0.00790
3546.88836,0.00773
3544.95965,0.00771
3543.03095,0.00785
3541.10224,0.00797
3539.17354,0.00798
3537.24483,0.00793
3535.31613,0.00791
3533.38742,0.00791
3531.45872,0.00787
3529.53001,0.00779
3527.60131,0.00772
3525.67260,0.00768
3523.74390,0.00769
3521.81519,0.00780
3519.88649,0.00795
3517.95779,0.00806
3516.02908,0.00814
3514.10038,0.00819
3512.17167,0.00823
3510.24297,0.00829
3508.31426,0.00840
3506.38556,0.00851
3504.45685,0.00859
3502.52815,0.00875
3500.59944,0.00898
3498.67074,0.00920
3496.74203,0.00939
3494.81333,0.00963
3492.88462,0.00992
3490.95592,0.01020
3489.02721,0.01049
3487.09851,0.01085
3485.16980,0.01127
3483.24110,0.01171
3481.31239,0.01220
3479.38369,0.01282
3477.45498,0.01349
3475.52628,0.01419
3473.59757,0.01498
3471.66887,0.01583
3469.74016,0.01673
3467.81146,0.01771
3465.88275,0.01881
3463.95405,0.02000
3462.02534,0.02133
3460.09664,0.02283
3458.16793,0.02454
3456.23923,0.02650
3454.31052,0.02875
3452.38182,0.03132
3450.45311,0.03425
3448.52441,0.03760
3446.59570,0.04145
3444.66700,0.04576
3442.73829,0.05042
3440.80959,0.05536
3438.88088,0.06041
3436.95218,0.06540
3435.02347,0.07020
3433.09477,0.07468
3431.16606,0.07867
3429.23736,0.08207
3427.30865,0.08482
3425.37995,0.08688
3423.45124,0.08823
3421.52254,0.08888
3419.59383,0.08895
3417.66513,0.08856
3415.73642,0.08784
3413.80772,0.08688
3411.87901,0.08583
3409.95031,0.08479
3408.02160,0.08387
3406.09290,0.08314
3404.16419,0.08268
3402.23549,0.08254
3400.30678,0.08277
3398.37808,0.08341
3396.44937,0.08448
3394.52067,0.08598
3392.59196,0.08791
3390.66326,0.09026
3388.73456,0.09292
3386.80585,0.09575
3384.87715,0.09864
3382.94844,0.10149
3381.01974,0.10418
3379.09103,0.10657
3377.16233,0.10856
3375.23362,0.11009
3373.30492,0.11111
3371.37621,0.11161
3369.44751,0.11160
3367.51880,0.11119
3365.59010,0.11047
3363.66139,0.10956
3361.73269,0.10852
3359.80398,0.10748
3357.87528,0.10653
3355.94657,0.10581
3354.01787,0.10547
3352.08916,0.10562
3350.16046,0.10633
3348.23175,0.10765
3346.30305,0.10958
3344.37434,0.11207
3342.44564,0.11501
3340.51693,0.11822
3338.58823,0.12151
3336.65952,0.12466
3334.73082,0.12739
3332.80211,0.12943
3330.87341,0.13056
3328.94470,0.13071
3327.01600,0.12995
3325.08729,0.12846
3323.15859,0.12646
3321.22988,0.12412
3319.30118,0.12163
3317.37247,0.11914
3315.44377,0.11677
3313.51506,0.11457
3311.58636,0.11254
3309.65765,0.11065
3307.72895,0.10887
3305.80024,0.10715
3303.87154,0.10552
3301.94283,0.10392
3300.01413,0.10232
3298.08542,0.10070
3296.15672,0.09909
3294.22801,0.09749
3292.29931,0.09593
3290.37060,0.09444
3288.44190,0.09300
3286.51319,0.09153
3284.58449,0.09005
3282.65578,0.08857
3280.72708,0.08708
3278.79837,0.08559
3276.86967,0.08413
3274.94096,0.08271
3273.01226,0.08131
3271.08355,0.08000
3269.15485,0.07887
3267.22614,0.07795
3265.29744,0.07722
3263.36873,0.07672
3261.44003,0.07654
3259.51132,0.07674
3257.58262,0.07732
3255.65392,0.07827
3253.72521,0.07953
3251.79651,0.08092
3249.86780,0.08221
3247.93910,0.08327
3246.01039,0.08403
3244.08169,0.08448
3242.15298,0.08465
3240.22428,0.08461
3238.29557,0.08441
3236.36687,0.08414
3234.43816,0.08387
3232.50946,0.08367
3230.58075,0.08360
3228.65205,0.08363
3226.72334,0.08380
3224.79464,0.08418
3222.86593,0.08474
3220.93723,0.08547
3219.00852,0.08639
3217.07982,0.08752
3215.15111,0.08881
3213.22241,0.09026
3211.29370,0.09186
3209.36500,0.09363
3207.43629,0.09553
3205.50759,0.09754
3203.57888,0.09962
3201.65018,0.10171
3199.72147,0.10381
3197.79277,0.10593
3195.86406,0.10806
3193.93536,0.11022
3192.00665,0.11241
3190.07795,0.11455
3188.14924,0.11648
3186.22054,0.11805
3184.29183,0.11917
3182.36313,0.11981
3180.43442,0.12008
3178.50572,0.12014
3176.57701,0.12012
3174.64831,0.12013
3172.71960,0.12027
3170.79090,0.12059
3168.86219,0.12117
3166.93349,0.12209
3165.00478,0.12335
3163.07608,0.12493
3161.14737,0.12679
3159.21867,0.12887
3157.28996,0.13106
3155.36126,0.13326
3153.43255,0.13541
3151.50385,0.13742
3149.57514,0.13918
3147.64644,0.14058
3145.71773,0.14152
3143.78903,0.14194
3141.86032,0.14182
3139.93162,0.14122
3138.00291,0.14017
3136.07421,0.13871
3134.14550,0.13689
3132.21680,0.13477
3130.28809,0.13243
3128.35939,0.12993
3126.43069,0.12730
3124.50198,0.12454
3122.57328,0.12169
3120.64457,0.11882
3118.71587,0.11597
3116.78716,0.11317
3114.85846,0.11047
3112.92975,0.10786
3111.00105,0.10530
3109.07234,0.10281
3107.14364,0.10044
3105.21493,0.09820
3103.28623,0.09606
3101.35752,0.09403
3099.42882,0.09218
3097.50011,0.09050
3095.57141,0.08898
3093.64270,0.08763
3091.71400,0.08644
3089.78529,0.08540
3087.85659,0.08448
3085.92788,0.08361
3083.99918,0.08266
3082.07047,0.08154
3080.14177,0.08023
3078.21306,0.07881
3076.28436,0.07737
3074.35565,0.07596
3072.42695,0.07460
3070.49824,0.07329
3068.56954,0.07202
3066.64083,0.07082
3064.71213,0.06968
3062.78342,0.06864
3060.85472,0.06764
3058.92601,0.06667
3056.99731,0.06573
3055.06860,0.06486
3053.13990,0.06403
3051.21119,0.06325
3049.28249,0.06251
3047.35378,0.06181
3045.42508,0.06115
3043.49637,0.06051
3041.56767,0.05991
3039.63896,0.05934
3037.71026,0.05878
3035.78155,0.05821
3033.85285,0.05765
3031.92414,0.05713
3029.99544,0.05666
3028.06673,0.05623
3026.13803,0.05579
3024.20932,0.05537
3022.28062,0.05495
3020.35191,0.05449
3018.42321,0.05398
3016.49450,0.05344
3014.56580,0.05291
3012.63709,0.05240
3010.70839,0.05194
3008.77968,0.05149
3006.85098,0.05102
3004.92227,0.05053
3002.99357,0.05006
3001.06486,0.04957
2999.13616,0.04908
2997.20746,0.04862
2995.27875,0.04818
2993.35005,0.04774
2991.42134,0.04731
2989.49264,0.04691
2987.56393,0.04651
2985.63523,0.04609
2983.70652,0.04564
2981.77782,0.04520
2979.84911,0.04479
2977.92041,0.04439
2975.99170,0.04397
2974.06300,0.04352
2972.13429,0.04307
2970.20559,0.04265
2968.27688,0.04224
2966.34818,0.04185
2964.41947,0.04145
2962.49077,0.04106
2960.56206,0.04071
2958.63336,0.04040
2956.70465,0.04015
2954.77595,0.03993
2952.84724,0.03975
2950.91854,0.03961
2948.98983,0.03950
2947.06113,0.03943
2945.13242,0.03941
2943.20372,0.03941
2941.27501,0.03940
2939.34631,0.03940
2937.41760,0.03941
2935.48890,0.03941
2933.56019,0.03937
2931.63149,0.03931
2929.70278,0.03925
2927.77408,0.03921
2925.84537,0.03920
2923.91667,0.03922
2921.98796,0.03925
2920.05926,0.03928
2918.13055,0.03933
2916.20185,0.03944
2914.27314,0.03967
2912.34444,0.03993
2910.41573,0.04007
2908.48703,0.04004
2906.55832,0.03988
2904.62962,0.03962
2902.70091,0.03926
2900.77221,0.03882
2898.84350,0.03834
2896.91480,0.03784
2894.98609,0.03731
2893.05739,0.03677
2891.12868,0.03623
2889.19998,0.03574
2887.27127,0.03528
2885.34257,0.03484
2883.41386,0.03440
2881.48516,0.03400
2879.55645,0.03363
2877.62775,0.03329
2875.69904,0.03297
2873.77034,0.03268
2871.84163,0.03241
2869.91293,0.03216
2867.98422,0.03193
2866.05552,0.03172
2864.12682,0.03149
2862.19811,0.03126
2860.26941,0.03104
2858.34070,0.03081
2856.41200,0.03055
2854.48329,0.03028
2852.55459,0.03000
2850.62588,0.02976
2848.69718,0.02968
2846.76847,0.02979
2844.83977,0.02996
2842.91106,0.03009
2840.98236,0.03014
2839.05365,0.03016
2837.12495,0.03015
2835.19624,0.03013
2833.26754,0.03009
2831.33883,0.03007
2829.41013,0.03004
2827.48142,0.03000
2825.55272,0.02994
2823.62401,0.02987
2821.69531,0.02979
2819.76660,0.02971
2817.83790,0.02963
2815.90919,0.02956
2813.98049,0.02949
2812.05178,0.02943
2810.12308,0.02939
2808.19437,0.02935
2806.26567,0.02933
2804.33696,0.02932
2802.40826,0.02936
2800.47955,0.02940
2798.55085,0.02944
2796.62214,0.02952
2794.69344,0.02964
2792.76473,0.02975
2790.83603,0.02989
2788.90732,0.03005
2786.97862,0.03025
2785.04991,0.03049
2783.12121,0.03076
2781.19250,0.03106
2779.26380,0.03137
2777.33509,0.03171
2775.40639,0.03206
2773.47768,0.03243
2771.54898,0.03282
2769.62027,0.03321
2767.69157,0.03357
2765.76286,0.03389
2763.83416,0.03420
2761.90545,0.03447
2759.97675,0.03470
2758.04804,0.03488
2756.11934,0.03501
2754.19063,0.03511
2752.26193,0.03517
2750.33322,0.03520
2748.40452,0.03519
2746.47581,0.03515
2744.54711,0.03510
2742.61840,0.03504
2740.68970,0.03495
2738.76099,0.03480
2736.83229,0.03462
2734.90359,0.03444
2732.97488,0.03424
2731.04618,0.03403
2729.11747,0.03379
2727.18877,0.03352
2725.26006,0.03323
2723.33136,0.03293
2721.40265,0.03263
2719.47395,0.03233
2717.54524,0.03202
2715.61654,0.03170
2713.68783,0.03139
2711.75913,0.03106
2709.83042,0.03075
2707.90172,0.03047
2705.97301,0.03021
2704.04431,0.02993
2702.11560,0.02964
2700.18690,0.02935
2698.25819,0.02905
2696.32949,0.02875
2694.40078,0.02846
2692.47208,0.02820
2690.54337,0.02796
2688.61467,0.02773
2686.68596,0.02750
2684.75726,0.02728
2682.82855,0.02708
2680.89985,0.02691
2678.97114,0.02677
2677.04244,0.02664
2675.11373,0.02650
2673.18503,0.02637
2671.25632,0.02626
2669.32762,0.02618
2667.39891,0.02613
2665.47021,0.02612
2663.54150,0.02616
2661.61280,0.02623
2659.68409,0.02629
2657.75539,0.02634
2655.82668,0.02636
2653.89798,0.02633
2651.96927,0.02622
2650.04057,0.02606
2648.11186,0.02588
2646.18316,0.02569
2644.25445,0.02552
2642.32575,0.02540
2640.39704,0.02532
2638.46834,0.02526
2636.53963,0.02519
2634.61093,0.02513
2632.68222,0.02509
2630.75352,0.02505
2628.82481,0.02498
2626.89611,0.02491
2624.96740,0.02486
2623.03870,0.02482
2621.10999,0.02481
2619.18129,0.02484
2617.25258,0.02489
2615.32388,0.02495
2613.39517,0.02505
2611.46647,0.02516
2609.53776,0.02525
2607.60906,0.02532
2605.68036,0.02535
2603.75165,0.02539
2601.82295,0.02545
2599.89424,0.02551
2597.96554,0.02555
2596.03683,0.02559
2594.10813,0.02558
2592.17942,0.02553
2590.25072,0.02547
2588.32201,0.02541
2586.39331,0.02530
2584.46460,0.02515
2582.53590,0.02504
2580.60719,0.02494
2578.67849,0.02485
2576.74978,0.02477
2574.82108,0.02469
2572.89237,0.02457
2570.96367,0.02444
2569.03496,0.02430
2567.10626,0.02411
2565.17755,0.02389
2563.24885,0.02366
2561.32014,0.02346
2559.39144,0.02328
2557.46273,0.02309
2555.53403,0.02292
2553.60532,0.02277
2551.67662,0.02263
2549.74791,0.02251
2547.81921,0.02240
2545.89050,0.02230
2543.96180,0.02221
2542.03309,0.02215
2540.10439,0.02208
2538.17568,0.02203
2536.24698,0.02201
2534.31827,0.02201
2532.38957,0.02202
2530.46086,0.02210
2528.53216,0.02223
2526.60345,0.02238
2524.67475,0.02254
2522.74604,0.02275
2520.81734,0.02298
2518.88863,0.02318
2516.95993,0.02333
2515.03122,0.02343
2513.10252,0.02345
2511.17381,0.02343
2509.24511,0.02341
2507.31640,0.02337
2505.38770,0.02335
2503.45899,0.02337
2501.53029,0.02344
2499.60158,0.02356
2497.67288,0.02376
2495.74417,0.02401
2493.81547,0.02429
2491.88676,0.02456
2489.95806,0.02474
2488.02935,0.02481
2486.10065,0.02479
2484.17194,0.02474
2482.24324,0.02474
2480.31453,0.02487
2478.38583,0.02510
2476.45713,0.02538
2474.52842,0.02569
2472.59972,0.02597
2470.67101,0.02619
2468.74231,0.02630
2466.81360,0.02630
2464.88490,0.02615
2462.95619,0.02588
2461.02749,0.02552
2459.09878,0.02514
2457.17008,0.02478
2455.24137,0.02440
2453.31267,0.02401
2451.38396,0.02368
2449.45526,0.02343
2447.52655,0.02322
2445.59785,0.02301
2443.66914,0.02279
2441.74044,0.02253
2439.81173,0.02224
2437.88303,0.02189
2435.95432,0.02151
2434.02562,0.02116
2432.09691,0.02085
2430.16821,0.02058
2428.23950,0.02033
2426.31080,0.02008
2424.38209,0.01986
2422.45339,0.01964
2420.52468,0.01943
2418.59598,0.01926
2416.66727,0.01913
2414.73857,0.01902
2412.80986,0.01891
2410.88116,0.01881
2408.95245,0.01866
2407.02375,0.01848
2405.09504,0.01831
2403.16634,0.01823
2401.23763,0.01818
2399.30893,0.01814
2397.38022,0.01810
2395.45152,0.01810
2393.52281,0.01812
2391.59411,0.01815
2389.66540,0.01822
2387.73670,0.01835
2385.80799,0.01855
2383.87929,0.01886
2381.95058,0.01930
2380.02188,0.01988
2378.09317,0.02062
2376.16447,0.02154
2374.23576,0.02261
2372.30706,0.02379
2370.37835,0.02498
2368.44965,0.02610
2366.52094,0.02706
2364.59224,0.02778
2362.66353,0.02821
2360.73483,0.02824
2358.80612,0.02781
2356.87742,0.02688
2354.94871,0.02553
2353.02001,0.02388
2351.09130,0.02226
2349.16260,0.02121
2347.23389,0.02103
2345.30519,0.02137
2343.37649,0.02173
2341.44778,0.02188
2339.51908,0.02182
2337.59037,0.02164
2335.66167,0.02139
2333.73296,0.02107
2331.80426,0.02067
2329.87555,0.02022
2327.94685,0.01996
2326.01814,0.02005
2324.08944,0.02015
2322.16073,0.01976
2320.23203,0.01900
2318.30332,0.01829
2316.37462,0.01774
2314.44591,0.01729
2312.51721,0.01688
2310.58850,0.01653
2308.65980,0.01627
2306.73109,0.01606
2304.80239,0.01586
2302.87368,0.01569
2300.94498,0.01556
2299.01627,0.01548
2297.08757,0.01547
2295.15886,0.01550
2293.23016,0.01557
2291.30145,0.01568
2289.37275,0.01584
2287.44404,0.01600
2285.51534,0.01611
2283.58663,0.01611
2281.65793,0.01605
2279.72922,0.01601
2277.80052,0.01606
2275.87181,0.01621
2273.94311,0.01642
2272.01440,0.01664
2270.08570,0.01683
2268.15699,0.01691
2266.22829,0.01685
2264.29958,0.01673
2262.37088,0.01665
2260.44217,0.01664
2258.51347,0.01665
2256.58476,0.01655
2254.65606,0.01633
2252.72735,0.01616
2250.79865,0.01620
2248.86994,0.01639
2246.94124,0.01664
2245.01253,0.01697
2243.08383,0.01740
2241.15512,0.01788
2239.22642,0.01843
2237.29771,0.01915
2235.36901,0.02009
2233.44030,0.02133
2231.51160,0.02298
2229.58289,0.02515
2227.65419,0.02809
2225.72548,0.03219
2223.79678,0.03786
2221.86807,0.04559
2219.93937,0.05579
2218.01066,0.06842
2216.08196,0.08297
2214.15326,0.09840
2212.22455,0.11322
2210.29585,0.12583
2208.36714,0.13509
2206.43844,0.14065
2204.50973,0.14285
2202.58103,0.14232
2200.65232,0.13961
2198.72362,0.13527
2196.79491,0.12985
2194.86621,0.12380
2192.93750,0.11748
2191.00880,0.11113
2189.08009,0.10503
2187.15139,0.09960
2185.22268,0.09531
2183.29398,0.09248
2181.36527,0.09171
2179.43657,0.09384
2177.50786,0.09918
2175.57916,0.10759
2173.65045,0.11901
2171.72175,0.13298
2169.79304,0.14816
2167.86434,0.16275
2165.93563,0.17515
2164.00693,0.18473
2162.07822,0.19159
2160.14952,0.19539
2158.22081,0.19582
2156.29211,0.19395
2154.36340,0.19067
2152.43470,0.18589
2150.50599,0.17974
2148.57729,0.17282
2146.64858,0.16573
2144.71988,0.15896
2142.79117,0.15265
2140.86247,0.14661
2138.93376,0.14064
2137.00506,0.13463
2135.07635,0.12861
2133.14765,0.12287
2131.21894,0.11776
2129.29024,0.11330
2127.36153,0.10923
2125.43283,0.10546
2123.50412,0.10218
2121.57542,0.09985
2119.64671,0.09930
2117.71801,0.10074
2115.78930,0.10227
2113.86060,0.10124
2111.93189,0.09750
2110.00319,0.09296
2108.07448,0.08896
2106.14578,0.08569
2104.21707,0.08296
2102.28837,0.08059
2100.35966,0.07851
2098.43096,0.07658
2096.50225,0.07456
2094.57355,0.07256
2092.64484,0.07088
2090.71614,0.06959
2088.78743,0.06843
2086.85873,0.06726
2084.93003,0.06616
2083.00132,0.06518
2081.07262,0.06430
2079.14391,0.06341
2077.21521,0.06252
2075.28650,0.06169
2073.35780,0.06090
2071.42909,0.06014
2069.50039,0.05944
2067.57168,0.05877
2065.64298,0.05808
2063.71427,0.05742
2061.78557,0.05682
2059.85686,0.05629
2057.92816,0.05594
2055.99945,0.05570
2054.07075,0.05556
2052.14204,0.05583
2050.21334,0.05630
2048.28463,0.05633
2046.35593,0.05608
2044.42722,0.05601
2042.49852,0.05607
2040.56981,0.05621
2038.64111,0.05643
2036.71240,0.05659
2034.78370,0.05641
2032.85499,0.05595
2030.92629,0.05544
2028.99758,0.05489
2027.06888,0.05424
2025.14017,0.05350
2023.21147,0.05274
2021.28276,0.05199
2019.35406,0.05119
2017.42535,0.05035
2015.49665,0.04958
2013.56794,0.04895
2011.63924,0.04840
2009.71053,0.04781
2007.78183,0.04696
2005.85312,0.04589
2003.92442,0.04495
2001.99571,0.04429
2000.06701,0.04379
1998.13830,0.04335
1996.20960,0.04295
1994.28089,0.04258
1992.35219,0.04223
1990.42348,0.04190
1988.49478,0.04163
1986.56607,0.04154
1984.63737,0.04160
1982.70866,0.04183
1980.77996,0.04214
1978.85125,0.04190
1976.92255,0.04079
1974.99384,0.03950
1973.06514,0.03863
1971.13643,0.03805
1969.20773,0.03756
1967.27902,0.03710
1965.35032,0.03673
1963.42161,0.03634
1961.49291,0.03575
1959.56420,0.03500
1957.63550,0.03430
1955.70679,0.03379
1953.77809,0.03339
1951.84939,0.03301
1949.92068,0.03264
1947.99198,0.03220
1946.06327,0.03164
1944.13457,0.03103
1942.20586,0.03054
1940.27716,0.03022
1938.34845,0.02989
1936.41975,0.02952
1934.49104,0.02917
1932.56234,0.02881
1930.63363,0.02844
1928.70493,0.02808
1926.77622,0.02767
1924.84752,0.02721
1922.91881,0.02680
1920.99011,0.02646
1919.06140,0.02608
1917.13270,0.02582
1915.20399,0.02574
1913.27529,0.02556
1911.34658,0.02519
1909.41788,0.02482
1907.48917,0.02457
1905.56047,0.02439
1903.63176,0.02419
1901.70306,0.02395
1899.77435,0.02368
1897.84565,0.02338
1895.91694,0.02308
1893.98824,0.02282
1892.05953,0.02251
1890.13083,0.02218
1888.20212,0.02200
1886.27342,0.02196
1884.34471,0.02188
1882.41601,0.02175
1880.48730,0.02160
1878.55860,0.02147
1876.62989,0.02136
1874.70119,0.02128
1872.77248,0.02115
1870.84378,0.02094
1868.91507,0.02100
1866.98637,0.02160
1865.05766,0.02235
1863.12896,0.02269
1861.20025,0.02251
1859.27155,0.02200
1857.34284,0.02137
1855.41414,0.02074
1853.48543,0.02017
1851.55673,0.01968
1849.62802,0.01921
1847.69932,0.01854
1845.77061,0.01765
1843.84191,0.01717
1841.91320,0.01743
1839.98450,0.01766
1838.05579,0.01747
1836.12709,0.01718
1834.19838,0.01687
1832.26968,0.01633
1830.34097,0.01578
1828.41227,0.01553
1826.48356,0.01544
1824.55486,0.01540
1822.62616,0.01549
1820.69745,0.01544
1818.76875,0.01511
1816.84004,0.01475
1814.91134,0.01451
1812.98263,0.01428
1811.05393,0.01406
1809.12522,0.01399
1807.19652,0.01399
1805.26781,0.01384
1803.33911,0.01350
1801.41040,0.01319
1799.48170,0.01317
1797.55299,0.01329
1795.62429,0.01307
1793.69558,0.01250
1791.76688,0.01244
1789.83817,0.01314
1787.90947,0.01377
1785.98076,0.01400
1784.05206,0.01420
1782.12335,0.01453
1780.19465,0.01492
1778.26594,0.01532
1776.33724,0.01537
1774.40853,0.01483
1772.47983,0.01448
1770.55112,0.01501
1768.62242,0.01583
1766.69371,0.01639
1764.76501,0.01645
1762.83630,0.01597
1760.90760,0.01560
1758.97889,0.01545
1757.05019,0.01517
1755.12148,0.01472
1753.19278,0.01383
1751.26407,0.01278
1749.33537,0.01239
1747.40666,0.01250
1745.47796,0.01244
1743.54925,0.01203
1741.62055,0.01140
1739.69184,0.01094
1737.76314,0.01041
1735.83443,0.00904
1733.90573,0.00808
1731.97702,0.00896
1730.04832,0.01030
1728.11961,0.01090
1726.19091,0.01102
1724.26220,0.01093
1722.33350,0.01057
1720.40479,0.00943
1718.47609,0.00788
1716.54738,0.00759
1714.61868,0.00885
1712.68997,0.01016
1710.76127,0.01074
1708.83256,0.01068
1706.90386,0.01031
1704.97515,0.00997
1703.04645,0.00909
1701.11774,0.00776
1699.18904,0.00754
1697.26033,0.00836
1695.33163,0.00980
1693.40293,0.01209
1691.47422,0.01405
1689.54552,0.01511
1687.61681,0.01547
1685.68811,0.01581
1683.75940,0.01880
1681.83070,0.02522
1679.90199,0.03255
1677.97329,0.03857
1676.04458,0.04316
1674.11588,0.04799
1672.18717,0.05403
1670.25847,0.06141
1668.32976,0.07051
1666.40106,0.08044
1664.47235,0.08983
1662.54365,0.09864
1660.61494,0.10635
1658.68624,0.11119
1656.75753,0.11203
1654.82883,0.11051
1652.90012,0.11225
1650.97142,0.12049
1649.04271,0.13174
1647.11401,0.14447
1645.18530,0.15994
1643.25660,0.17656
1641.32789,0.19131
1639.39919,0.20221
1637.47048,0.20872
1635.54178,0.21288
1633.61307,0.21700
1631.68437,0.22060
1629.75566,0.22268
1627.82696,0.22318
1625.89825,0.22164
1623.96955,0.21764
1622.04084,0.21160
1620.11214,0.20354
1618.18343,0.19339
1616.25473,0.18302
1614.32602,0.17411
1612.39732,0.16567
1610.46861,0.15716
1608.53991,0.14943
1606.61120,0.14309
1604.68250,0.13813
1602.75379,0.13448
1600.82509,0.13215
1598.89638,0.13125
1596.96768,0.13214
1595.03897,0.13519
1593.11027,0.14006
1591.18156,0.14542
1589.25286,0.14998
1587.32415,0.15347
1585.39545,0.15642
1583.46674,0.15939
1581.53804,0.16255
1579.60933,0.16539
1577.68063,0.16783
1575.75192,0.17145
1573.82322,0.17664
1571.89451,0.18152
1569.96581,0.18592
1568.03710,0.19087
1566.10840,0.19585
1564.17970,0.19958
1562.25099,0.20070
1560.32229,0.19926
1558.39358,0.19803
1556.46488,0.19787
1554.53617,0.19666
1552.60747,0.19388
1550.67876,0.19024
1548.75006,0.18601
1546.82135,0.18117
1544.89265,0.17561
1542.96394,0.16941
1541.03524,0.16333
1539.10653,0.15919
1537.17783,0.15688
1535.24912,0.15395
1533.32042,0.15023
1531.39171,0.14699
1529.46301,0.14400
1527.53430,0.14093
1525.60560,0.13850
1523.67689,0.13715
1521.74819,0.13797
1519.81948,0.14276
1517.89078,0.15177
1515.96207,0.16440
1514.03337,0.17963
1512.10466,0.19535
1510.17596,0.20928
1508.24725,0.22058
1506.31855,0.23002
1504.38984,0.23604
1502.46114,0.23485
1500.53243,0.22618
1498.60373,0.21366
1496.67502,0.20140
1494.74632,0.19153
1492.81761,0.18353
1490.88891,0.17657
1488.96020,0.17122
1487.03150,0.16758
1485.10279,0.16458
1483.17409,0.16138
1481.24538,0.15795
1479.31668,0.15447
1477.38797,0.15089
1475.45927,0.14714
1473.53056,0.14378
1471.60186,0.14171
1469.67315,0.14051
1467.74445,0.13868
1465.81574,0.13611
1463.88704,0.13388
1461.95833,0.13192
1460.02963,0.12901
1458.10092,0.12553
1456.17222,0.12384
1454.24351,0.12418
1452.31481,0.12437
1450.38610,0.12363
1448.45740,0.12262
1446.52869,0.12177
1444.59999,0.12097
1442.67128,0.11992
1440.74258,0.11836
1438.81387,0.11598
1436.88517,0.11353
1434.95646,0.11208
1433.02776,0.11101
1431.09906,0.10948
1429.17035,0.10786
1427.24165,0.10629
1425.31294,0.10444
1423.38424,0.10221
1421.45553,0.09954
1419.52683,0.09705
1417.59812,0.09572
1415.66942,0.09509
1413.74071,0.09415
1411.81201,0.09291
1409.88330,0.09166
1407.95460,0.09042
1406.02589,0.08918
1404.09719,0.08813
1402.16848,0.08715
1400.23978,0.08603
1398.31107,0.08494
1396.38237,0.08399
1394.45366,0.08333
1392.52496,0.08306
1390.59625,0.08264
1388.66755,0.08183
1386.73884,0.08121
1384.81014,0.08101
1382.88143,0.08078
1380.95273,0.08034
1379.02402,0.07984
1377.09532,0.07927
1375.16661,0.07870
1373.23791,0.07837
1371.30920,0.07826
1369.38050,0.07808
1367.45179,0.07779
1365.52309,0.07736
1363.59438,0.07685
1361.66568,0.07656
1359.73697,0.07653
1357.80827,0.07646
1355.87956,0.07625
1353.95086,0.07603
1352.02215,0.07583
1350.09345,0.07568
1348.16474,0.07561
1346.23604,0.07566
1344.30733,0.07583
1342.37863,0.07612
1340.44992,0.07658
1338.52122,0.07730
1336.59251,0.07803
1334.66381,0.07835
1332.73510,0.07807
1330.80640,0.07737
1328.87769,0.07650
1326.94899,0.07561
1325.02028,0.07477
1323.09158,0.07400
1321.16287,0.07327
1319.23417,0.07260
1317.30546,0.07201
1315.37676,0.07147
1313.44805,0.07093
1311.51935,0.07042
1309.59064,0.06992
1307.66194,0.06940
1305.73323,0.06887
1303.80453,0.06835
1301.87583,0.06784
1299.94712,0.06734
1298.01842,0.06686
1296.08971,0.06639
1294.16101,0.06594
1292.23230,0.06550
1290.30360,0.06509
1288.37489,0.06470
1286.44619,0.06436
1284.51748,0.06404
1282.58878,0.06377
1280.66007,0.06360
1278.73137,0.06358
1276.80266,0.06377
1274.87396,0.06429
1272.94525,0.06529
1271.01655,0.06706
1269.08784,0.07004
1267.15914,0.07486
1265.23043,0.08231
1263.30173,0.09313
1261.37302,0.10762
1259.44432,0.12487
1257.51561,0.14244
1255.58691,0.15700
1253.65820,0.16584
1251.72950,0.16823
1249.80079,0.16545
1247.87209,0.15965
1245.94338,0.15277
1244.01468,0.14600
1242.08597,0.13986
1240.15727,0.13449
1238.22856,0.12983
1236.29986,0.12580
1234.37115,0.12229
1232.44245,0.11924
1230.51374,0.11658
1228.58504,0.11428
1226.65633,0.11229
1224.72763,0.11056
1222.79892,0.10903
1220.87022,0.10765
1218.94151,0.10644
1217.01281,0.10537
1215.08410,0.10444
1213.15540,0.10364
1211.22669,0.10294
1209.29799,0.10232
1207.36928,0.10179
1205.44058,0.10135
1203.51187,0.10099
1201.58317,0.10067
1199.65446,0.10040
1197.72576,0.10018
1195.79705,0.10002
1193.86835,0.09990
1191.93964,0.09984
1190.01094,0.09980
1188.08223,0.09974
1186.15353,0.09965
1184.22482,0.09950
1182.29612,0.09928
1180.36741,0.09905
1178.43871,0.09885
1176.51000,0.09864
1174.58130,0.09836
1172.65260,0.09803
1170.72389,0.09768
1168.79519,0.09731
1166.86648,0.09695
1164.93778,0.09664
1163.00907,0.09639
1161.08037,0.09621
1159.15166,0.09611
1157.22296,0.09605
1155.29425,0.09603
1153.36555,0.09602
1151.43684,0.09604
1149.50814,0.09609
1147.57943,0.09618
1145.65073,0.09629
1143.72202,0.09644
1141.79332,0.09660
1139.86461,0.09678
1137.93591,0.09696
1136.00720,0.09716
1134.07850,0.09737
1132.14979,0.09760
1130.22109,0.09785
1128.29238,0.09814
1126.36368,0.09849
1124.43497,0.09894
1122.50627,0.09947
1120.57756,0.10010
1118.64886,0.10085
1116.72015,0.10176
1114.79145,0.10285
1112.86274,0.10408
1110.93404,0.10548
1109.00533,0.10714
1107.07663,0.10922
1105.14792,0.11185
1103.21922,0.11501
1101.29051,0.11843
1099.36181,0.12164
1097.43310,0.12424
1095.50440,0.12605
1093.57569,0.12706
1091.64699,0.12747
1089.71828,0.12749
1087.78958,0.12729
1085.86087,0.12699
1083.93217,0.12663
1082.00346,0.12625
1080.07476,0.12587
1078.14605,0.12551
1076.21735,0.12514
1074.28864,0.12477
1072.35994,0.12442
1070.43123,0.12408
1068.50253,0.12372
1066.57382,0.12334
1064.64512,0.12296
1062.71641,0.12260
1060.78771,0.12222
1058.85900,0.12181
1056.93030,0.12138
1055.00159,0.12091
1053.07289,0.12041
1051.14418,0.11991
1049.21548,0.11943
1047.28677,0.11891
1045.35807,0.11834
1043.42936,0.11770
1041.50066,0.11705
1039.57196,0.11641
1037.64325,0.11578
1035.71455,0.11522
1033.78584,0.11473
1031.85714,0.11426
1029.92843,0.11376
1027.99973,0.11324
1026.07102,0.11273
1024.14232,0.11223
1022.21361,0.11170
1020.28491,0.11109
1018.35620,0.11050
1016.42750,0.10995
1014.49879,0.10938
1012.57009,0.10876
1010.64138,0.10814
1008.71268,0.10754
1006.78397,0.10697
1004.85527,0.10646
1002.92656,0.10598
1000.99786,0.10543
999.06915,0.10475
997.14045,0.10397
995.21174,0.10317
993.28304,0.10241
991.35433,0.10170
989.42563,0.10105
987.49692,0.10045
985.56822,0.09987
983.63951,0.09929
981.71081,0.09871
979.78210,0.09815
977.85340,0.09761
975.92469,0.09710
973.99599,0.09662
972.06728,0.09613
970.13858,0.09563
968.20987,0.09511
966.28117,0.09458
964.35246,0.09406
962.42376,0.09353
960.49505,0.09300
958.56635,0.09246
956.63764,0.09190
954.70894,0.09132
952.78023,0.09075
950.85153,0.09020
948.92282,0.08972
946.99412,0.08936
945.06541,0.08925
943.13671,0.08967
941.20800,0.09113
939.27930,0.09487
937.35059,0.10348
935.42189,0.12113
933.49318,0.15123
931.56448,0.18957
929.63577,0.21940
927.70707,0.22347
925.77836,0.20421
923.84966,0.17809
921.92095,0.15628
919.99225,0.14091
918.06354,0.13024
916.13484,0.12248
914.20613,0.11664
912.27743,0.11217
910.34873,0.10868
908.42002,0.10584
906.49132,0.10344
904.56261,0.10137
902.63391,0.09952
900.70520,0.09786
898.77650,0.09633
896.84779,0.09492
894.91909,0.09357
892.99038,0.09228
891.06168,0.09102
889.13297,0.08981
887.20427,0.08866
885.27556,0.08757
883.34686,0.08652
881.41815,0.08544
879.48945,0.08435
877.56074,0.08329
875.63204,0.08225
873.70333,0.08122
871.77463,0.08021
869.84592,0.07920
867.91722,0.07820
865.98851,0.07725
864.05981,0.07635
862.13110,0.07545
860.20240,0.07455
858.27369,0.07367
856.34499,0.07281
854.41628,0.07197
852.48758,0.07117
850.55887,0.07039
848.63017,0.06963
846.70146,0.06892
844.77276,0.06825
842.84405,0.06762
840.91535,0.06700
838.98664,0.06636
837.05794,0.06571
835.12923,0.06511
833.20053,0.06456
831.27182,0.06402
829.34312,0.06347
827.41441,0.06292
825.48571,0.06236
823.55700,0.06183
821.62830,0.06132
819.69959,0.06087
817.77089,0.06047
815.84218,0.06006
813.91348,0.05964
811.98477,0.05923
810.05607,0.05885
808.12736,0.05851
806.19866,0.05819
804.26995,0.05786
802.34125,0.05757
800.41254,0.05731
798.48384,0.05701
796.55513,0.05671
794.62643,0.05649
792.69772,0.05634
790.76902,0.05614
788.84031,0.05590
786.91161,0.05570
784.98290,0.05558
783.05420,0.05549
781.12550,0.05544
779.19679,0.05549
777.26809,0.05569
775.33938,0.05608
773.41068,0.05652
771.48197,0.05690
769.55327,0.05732
767.62456,0.05792
765.69586,0.05879
763.76715,0.05996
761.83845,0.06136
759.90974,0.06286
757.98104,0.06432
756.05233,0.06569
754.12363,0.06685
752.19492,0.06759
750.26622,0.06785
748.33751,0.06776
746.40881,0.06740
744.48010,0.06676
742.55140,0.06595
740.62269,0.06511
738.69399,0.06428
736.76528,0.06348
734.83658,0.06288
732.90787,0.06279
730.97917,0.06392
729.05046,0.06742
727.12176,0.07377
725.19305,0.08217
723.26435,0.09168
721.33564,0.10004
719.40694,0.10220
717.47823,0.09619
715.54953,0.08686
713.62082,0.07935
711.69212,0.07469
709.76341,0.07194
707.83471,0.07026
705.90600,0.06923
703.97730,0.06859
702.04859,0.06810
700.11989,0.06768
698.19118,0.06734
696.26248,0.06715
694.33377,0.06715
692.40507,0.06741
690.47636,0.06795
688.54766,0.06874
686.61895,0.06980
684.69025,0.07126
682.76154,0.07336
680.83284,0.07632
678.90413,0.08070
676.97543,0.08769
675.04672,0.09935
673.11802,0.11792
671.18931,0.14305
669.26061,0.16693
667.33190,0.17512
665.40320,0.16204
663.47449,0.13903
661.54579,0.11881
659.61708,0.10546
657.68838,0.09755
655.75967,0.09270
653.83097,0.08958
651.90226,0.08764
649.97356,0.08651
648.04486,0.08588
646.11615,0.08564
644.18745,0.08591
642.25874,0.08661
640.33004,0.08752
638.40133,0.08858
636.47263,0.08979
634.54392,0.09113
632.61522,0.09246
630.68651,0.09390
628.75781,0.09569
626.82910,0.09769
624.90040,0.09988
622.97169,0.10257
621.04299,0.10570
619.11428,0.10857
617.18558,0.11081
615.25687,0.11325
613.32817,0.11673
611.39946,0.12053
609.47076,0.12368
607.54205,0.12642
605.61335,0.12922
603.68464,0.13253
601.75594,0.13631
599.82723,0.13970
