4497.73989,0.02762
4495.81118,0.02762
4493.88248,0.02761
4491.95377,0.02764
4490.02507,0.02766
4488.09636,0.02763
4486.16766,0.02758
4484.23895,0.02757
4482.31025,0.02759
4480.38154,0.02758
4478.45284,0.02755
4476.52413,0.02751
4474.59543,0.02749
4472.66672,0.02747
4470.73802,0.02742
4468.80931,0.02737
4466.88061,0.02734
4464.95190,0.02734
4463.02320,0.02733
4461.09449,0.02731
4459.16579,0.02728
4457.23708,0.02727
4455.30838,0.02726
4453.37967,0.02725
4451.45097,0.02725
4449.52226,0.02725
4447.59356,0.02723
4445.66485,0.02721
4443.73615,0.02721
4441.80744,0.02720
4439.87874,0.02719
4437.95003,0.02715
4436.02133,0.02710
4434.09262,0.02706
4432.16392,0.02703
4430.23522,0.02704
4428.30651,0.02707
4426.37781,0.02706
4424.44910,0.02701
4422.52040,0.02699
4420.59169,0.02701
4418.66299,0.02704
4416.73428,0.02703
4414.80558,0.02700
4412.87687,0.02694
4410.94817,0.02687
4409.01946,0.02683
4407.09076,0.02685
4405.16205,0.02687
4403.23335,0.02688
4401.30464,0.02686
4399.37594,0.02682
4397.44723,0.02679
4395.51853,0.02679
4393.58982,0.02682
4391.66112,0.02682
4389.73241,0.02679
4387.80371,0.02675
4385.87500,0.02673
4383.94630,0.02672
4382.01759,0.02672
4380.08889,0.02670
4378.16018,0.02668
4376.23148,0.02667
4374.30277,0.02669
4372.37407,0.02670
4370.44536,0.02670
4368.51666,0.02669
4366.58795,0.02664
4364.65925,0.02658
4362.73054,0.02656
4360.80184,0.02657
4358.87313,0.02654
4356.94443,0.02653
4355.01572,0.02654
4353.08702,0.02654
4351.15831,0.02652
4349.22961,0.02650
4347.30090,0.02649
4345.37220,0.02647
4343.44349,0.02643
4341.51479,0.02642
4339.58608,0.02643
4337.65738,0.02642
4335.72867,0.02640
4333.79997,0.02638
4331.87126,0.02637
4329.94256,0.02638
4328.01385,0.02636
4326.08515,0.02633
4324.15644,0.02631
4322.22774,0.02630
4320.29903,0.02629
4318.37033,0.02630
4316.44162,0.02631
4314.51292,0.02630
4312.58421,0.02626
4310.65551,0.02621
4308.72680,0.02620
4306.79810,0.02621
4304.86939,0.02622
4302.94069,0.02622
4301.01199,0.02619
4299.08328,0.02616
4297.15458,0.02616
4295.22587,0.02616
4293.29717,0.02613
4291.36846,0.02608
4289.43976,0.02604
4287.51105,0.02603
4285.58235,0.02603
4283.65364,0.02600
4281.72494,0.02598
4279.79623,0.02598
4277.86753,0.02597
4275.93882,0.02594
4274.01012,0.02592
4272.08141,0.02592
4270.15271,0.02592
4268.22400,0.02589
4266.29530,0.02587
4264.36659,0.02587
4262.43789,0.02586
4260.50918,0.02584
4258.58048,0.02586
4256.65177,0.02589
4254.72307,0.02587
4252.79436,0.02583
4250.86566,0.02582
4248.93695,0.02582
4247.00825,0.02580
4245.07954,0.02577
4243.15084,0.02576
4241.22213,0.02575
4239.29343,0.02575
4237.36472,0.02574
4235.43602,0.02574
4233.50731,0.02576
4231.57861,0.02576
4229.64990,0.02575
4227.72120,0.02573
4225.79249,0.02572
4223.86379,0.02572
4221.93508,0.02572
4220.00638,0.02571
4218.07767,0.02568
4216.14897,0.02565
4214.22026,0.02564
4212.29156,0.02566
4210.36285,0.02566
4208.43415,0.02566
4206.50544,0.02565
4204.57674,0.02566
4202.64803,0.02567
4200.71933,0.02567
4198.79062,0.02567
4196.86192,0.02566
4194.93321,0.02564
4193.00451,0.02561
4191.07580,0.02559
4189.14710,0.02557
4187.21839,0.02558
4185.28969,0.02558
4183.36098,0.02556
4181.43228,0.02553
4179.50357,0.02553
4177.57487,0.02553
4175.64616,0.02551
4173.71746,0.02551
4171.78875,0.02550
4169.86005,0.02549
4167.93135,0.02548
4166.00264,0.02547
4164.07394,0.02544
4162.14523,0.02541
4160.21653,0.02540
4158.28782,0.02539
4156.35912,0.02537
4154.43041,0.02536
4152.50171,0.02534
4150.57300,0.02532
4148.64430,0.02532
4146.71559,0.02533
4144.78689,0.02530
4142.85818,0.02526
4140.92948,0.02524
4139.00077,0.02524
4137.07207,0.02521
4135.14336,0.02518
4133.21466,0.02516
4131.28595,0.02516
4129.35725,0.02517
4127.42854,0.02515
4125.49984,0.02513
4123.57113,0.02513
4121.64243,0.02514
4119.71372,0.02514
4117.78502,0.02513
4115.85631,0.02512
4113.92761,0.02509
4111.99890,0.02507
4110.07020,0.02506
4108.14149,0.02506
4106.21279,0.02506
4104.28408,0.02505
4102.35538,0.02503
4100.42667,0.02500
4098.49797,0.02497
4096.56926,0.02494
4094.64056,0.02492
4092.71185,0.02491
4090.78315,0.02491
4088.85444,0.02489
4086.92574,0.02486
4084.99703,0.02484
4083.06833,0.02484
4081.13962,0.02484
4079.21092,0.02483
4077.28221,0.02481
4075.35351,0.02481
4073.42480,0.02482
4071.49610,0.02481
4069.56739,0.02479
4067.63869,0.02477
4065.70998,0.02476
4063.78128,0.02475
4061.85257,0.02474
4059.92387,0.02472
4057.99516,0.02469
4056.06646,0.02469
4054.13775,0.02469
4052.20905,0.02469
4050.28034,0.02470
4048.35164,0.02469
4046.42293,0.02468
4044.49423,0.02468
4042.56552,0.02468
4040.63682,0.02465
4038.70812,0.02458
4036.77941,0.02453
4034.85071,0.02450
4032.92200,0.02449
4030.99330,0.02448
4029.06459,0.02447
4027.13589,0.02445
4025.20718,0.02443
4023.27848,0.02441
4021.34977,0.02438
4019.42107,0.02435
4017.49236,0.02432
4015.56366,0.02431
4013.63495,0.02431
4011.70625,0.02430
4009.77754,0.02428
4007.84884,0.02426
4005.92013,0.02427
4003.99143,0.02429
4002.06272,0.02429
4000.13402,0.02426
3998.20531,0.02424
3996.27661,0.02424
3994.34790,0.02423
3992.41920,0.02421
3990.49049,0.02420
3988.56179,0.02421
3986.63308,0.02420
3984.70438,0.02417
3982.77567,0.02413
3980.84697,0.02409
3978.91826,0.02408
3976.98956,0.02409
3975.06085,0.02409
3973.13215,0.02406
3971.20344,0.02400
3969.27474,0.02394
3967.34603,0.02392
3965.41733,0.02392
3963.48862,0.02391
3961.55992,0.02389
3959.63121,0.02386
3957.70251,0.02382
3955.77380,0.02379
3953.84510,0.02378
3951.91639,0.02377
3949.98769,0.02374
3948.05898,0.02372
3946.13028,0.02373
3944.20157,0.02374
3942.27287,0.02372
3940.34416,0.02368
3938.41546,0.02367
3936.48675,0.02367
3934.55805,0.02366
3932.62934,0.02365
3930.70064,0.02364
3928.77193,0.02362
3926.84323,0.02361
3924.91452,0.02360
3922.98582,0.02358
3921.05711,0.02359
3919.12841,0.02362
3917.19970,0.02360
3915.27100,0.02354
3913.34229,0.02352
3911.41359,0.02356
3909.48489,0.02362
3907.55618,0.02368
3905.62748,0.02375
3903.69877,0.02382
3901.77007,0.02385
3899.84136,0.02382
3897.91266,0.02376
3895.98395,0.02373
3894.05525,0.02379
3892.12654,0.02388
3890.19784,0.02389
3888.26913,0.02388
3886.34043,0.02391
3884.41172,0.02389
3882.48302,0.02381
3880.55431,0.02372
3878.62561,0.02361
3876.69690,0.02353
3874.76820,0.02354
3872.83949,0.02362
3870.91079,0.02368
3868.98208,0.02363
3867.05338,0.02353
3865.12467,0.02349
3863.19597,0.02345
3861.26726,0.02336
3859.33856,0.02330
3857.40985,0.02342
3855.48115,0.02373
3853.55244,0.02389
3851.62374,0.02368
3849.69503,0.02335
3847.76633,0.02318
3845.83762,0.02316
3843.90892,0.02318
3841.98021,0.02320
3840.05151,0.02328
3838.12280,0.02334
3836.19410,0.02323
3834.26539,0.02302
3832.33669,0.02288
3830.40798,0.02281
3828.47928,0.02275
3826.55057,0.02268
3824.62187,0.02266
3822.69316,0.02273
3820.76446,0.02276
3818.83575,0.02273
3816.90705,0.02272
3814.97834,0.02264
3813.04964,0.02246
3811.12093,0.02236
3809.19223,0.02241
3807.26352,0.02246
3805.33482,0.02245
3803.40611,0.02248
3801.47741,0.02251
3799.54870,0.02241
3797.62000,0.02226
3795.69129,0.02215
3793.76259,0.02206
3791.83388,0.02203
3789.90518,0.02205
3787.97647,0.02207
3786.04777,0.02207
3784.11906,0.02204
3782.19036,0.02200
3780.26166,0.02200
3778.33295,0.02198
3776.40425,0.02191
3774.47554,0.02185
3772.54684,0.02186
3770.61813,0.02189
3768.68943,0.02187
3766.76072,0.02179
3764.83202,0.02172
3762.90331,0.02171
3760.97461,0.02173
3759.04590,0.02173
3757.11720,0.02170
3755.18849,0.02176
3753.25979,0.02195
3751.33108,0.02210
3749.40238,0.02205
3747.47367,0.02200
3745.54497,0.02203
3743.61626,0.02193
3741.68756,0.02169
3739.75885,0.02161
3737.83015,0.02169
3735.90144,0.02173
3733.97274,0.02166
3732.04403,0.02155
3730.11533,0.02144
3728.18662,0.02138
3726.25792,0.02134
3724.32921,0.02128
3722.40051,0.02120
3720.47180,0.02110
3718.54310,0.02099
3716.61439,0.02094
3714.68569,0.02099
3712.75698,0.02108
3710.82828,0.02105
3708.89957,0.02091
3706.97087,0.02077
3705.04216,0.02071
3703.11346,0.02070
3701.18475,0.02066
3699.25605,0.02059
3697.32734,0.02053
3695.39864,0.02048
3693.46993,0.02050
3691.54123,0.02060
3689.61252,0.02069
3687.68382,0.02061
3685.75511,0.02041
3683.82641,0.02025
3681.89770,0.02017
3679.96900,0.02018
3678.04029,0.02032
3676.11159,0.02047
3674.18288,0.02044
3672.25418,0.02035
3670.32547,0.02028
3668.39677,0.02011
3666.46806,0.01991
3664.53936,0.01981
3662.61065,0.01978
3660.68195,0.01975
3658.75324,0.01974
3656.82454,0.01973
3654.89583,0.01968
3652.96713,0.01969
3651.03842,0.01979
3649.10972,0.01980
3647.18102,0.01964
3645.25231,0.01946
3643.32361,0.01935
3641.39490,0.01930
3639.46620,0.01927
3637.53749,0.01929
3635.60879,0.01932
3633.68008,0.01937
3631.75138,0.01948
3629.82267,0.01960
3627.89397,0.01957
3625.96526,0.01941
3624.03656,0.01933
3622.10785,0.01939
3620.17915,0.01945
3618.25044,0.01942
3616.32174,0.01932
3614.39303,0.01928
3612.46433,0.01926
3610.53562,0.01925
3608.60692,0.01921
3606.67821,0.01914
3604.74951,0.01908
3602.82080,0.01904
3600.89210,0.01901
3598.96339,0.01897
3597.03469,0.01891
3595.10598,0.01887
3593.17728,0.01884
3591.24857,0.01881
3589.31987,0.01879
3587.39116,0.01874
3585.46246,0.01865
3583.53375,0.01855
3581.60505,0.01848
3579.67634,0.01840
3577.74764,0.01836
3575.81893,0.01834
3573.89023,0.01831
3571.96152,0.01830
3570.03282,0.01834
3568.10411,0.01838
3566.17541,0.01836
3564.24670,0.01825
3562.31800,0.01815
3560.38929,0.01809
3558.46059,0.01806
3556.53188,0.01803
3554.60318,0.01801
3552.67447,0.01798
3550.74577,0.01795
3548.81706,0.01792
3546.88836,0.01788
3544.95965,0.01783
3543.03095,0.01778
3541.10224,0.01774
3539.17354,0.01773
3537.24483,0.01776
3535.31613,0.01779
3533.38742,0.01781
3531.45872,0.01786
3529.53001,0.01795
3527.60131,0.01810
3525.67260,0.01828
3523.74390,0.01845
3521.81519,0.01861
3519.88649,0.01882
3517.95779,0.01908
3516.02908,0.01933
3514.10038,0.01958
3512.17167,0.01990
3510.24297,0.02024
3508.31426,0.02058
3506.38556,0.02095
3504.45685,0.02136
3502.52815,0.02181
3500.59944,0.02228
3498.67074,0.02276
3496.74203,0.02328
3494.81333,0.02386
3492.88462,0.02453
3490.95592,0.02533
3489.02721,0.02629
3487.09851,0.02737
3485.16980,0.02855
3483.24110,0.02991
3481.31239,0.03166
3479.38369,0.03419
3477.45498,0.03801
3475.52628,0.04377
3473.59757,0.05181
3471.66887,0.06113
3469.74016,0.06887
3467.81146,0.07195
3465.88275,0.06976
3463.95405,0.06430
3462.02534,0.05814
3460.09664,0.05277
3458.16793,0.04852
3456.23923,0.04523
3454.31052,0.04269
3452.38182,0.04076
3450.45311,0.03931
3448.52441,0.03824
3446.59570,0.03748
3444.66700,0.03695
3442.73829,0.03661
3440.80959,0.03646
3438.88088,0.03652
3436.95218,0.03678
3435.02347,0.03722
3433.09477,0.03791
3431.16606,0.03894
3429.23736,0.04050
3427.30865,0.04286
3425.37995,0.04636
3423.45124,0.05111
3421.52254,0.05655
3419.59383,0.06143
3417.66513,0.06447
3415.73642,0.06525
3413.80772,0.06422
3411.87901,0.06212
3409.95031,0.05950
3408.02160,0.05676
3406.09290,0.05418
3404.16419,0.05196
3402.23549,0.05020
3400.30678,0.04889
3398.37808,0.04797
3396.44937,0.04737
3394.52067,0.04705
3392.59196,0.04697
3390.66326,0.04708
3388.73456,0.04733
3386.80585,0.04770
3384.87715,0.04819
3382.94844,0.04881
3381.01974,0.04953
3379.09103,0.05035
3377.16233,0.05127
3375.23362,0.05232
3373.30492,0.05350
3371.37621,0.05478
3369.44751,0.05614
3367.51880,0.05757
3365.59010,0.05908
3363.66139,0.06069
3361.73269,0.06237
3359.80398,0.06409
3357.87528,0.06589
3355.94657,0.06780
3354.01787,0.06979
3352.08916,0.07179
3350.16046,0.07380
3348.23175,0.07583
3346.30305,0.07787
3344.37434,0.07986
3342.44564,0.08175
3340.51693,0.08353
3338.58823,0.08519
3336.65952,0.08673
3334.73082,0.08810
3332.80211,0.08929
3330.87341,0.09027
3328.94470,0.09105
3327.01600,0.09163
3325.08729,0.09202
3323.15859,0.09223
3321.22988,0.09226
3319.30118,0.09212
3317.37247,0.09181
3315.44377,0.09135
3313.51506,0.09077
3311.58636,0.09009
3309.65765,0.08937
3307.72895,0.08862
3305.80024,0.08787
3303.87154,0.08711
3301.94283,0.08637
3300.01413,0.08564
3298.08542,0.08491
3296.15672,0.08420
3294.22801,0.08353
3292.29931,0.08290
3290.37060,0.08227
3288.44190,0.08168
3286.51319,0.08112
3284.58449,0.08057
3282.65578,0.08004
3280.72708,0.07956
3278.79837,0.07911
3276.86967,0.07866
3274.94096,0.07824
3273.01226,0.07788
3271.08355,0.07753
3269.15485,0.07721
3267.22614,0.07693
3265.29744,0.07671
3263.36873,0.07651
3261.44003,0.07635
3259.51132,0.07624
3257.58262,0.07617
3255.65392,0.07613
3253.72521,0.07616
3251.79651,0.07626
3249.86780,0.07641
3247.93910,0.07658
3246.01039,0.07681
3244.08169,0.07709
3242.15298,0.07742
3240.22428,0.07782
3238.29557,0.07829
3236.36687,0.07882
3234.43816,0.07941
3232.50946,0.08008
3230.58075,0.08085
3228.65205,0.08167
3226.72334,0.08255
3224.79464,0.08345
3222.86593,0.08436
3220.93723,0.08530
3219.00852,0.08632
3217.07982,0.08740
3215.15111,0.08850
3213.22241,0.08959
3211.29370,0.09067
3209.36500,0.09178
3207.43629,0.09291
3205.50759,0.09405
3203.57888,0.09519
3201.65018,0.09628
3199.72147,0.09734
3197.79277,0.09836
3195.86406,0.09929
3193.93536,0.10015
3192.00665,0.10099
3190.07795,0.10177
3188.14924,0.10250
3186.22054,0.10318
3184.29183,0.10380
3182.36313,0.10437
3180.43442,0.10488
3178.50572,0.10533
3176.57701,0.10575
3174.64831,0.10618
3172.71960,0.10665
3170.79090,0.10716
3168.86219,0.10771
3166.93349,0.10833
3165.00478,0.10904
3163.07608,0.10985
3161.14737,0.11075
3159.21867,0.11173
3157.28996,0.11283
3155.36126,0.11403
3153.43255,0.11530
3151.50385,0.11663
3149.57514,0.11802
3147.64644,0.11948
3145.71773,0.12100
3143.78903,0.12255
3141.86032,0.12409
3139.93162,0.12559
3138.00291,0.12701
3136.07421,0.12835
3134.14550,0.12956
3132.21680,0.13060
3130.28809,0.13146
3128.35939,0.13213
3126.43069,0.13260
3124.50198,0.13288
3122.57328,0.13297
3120.64457,0.13290
3118.71587,0.13270
3116.78716,0.13237
3114.85846,0.13193
3112.92975,0.13139
3111.00105,0.13075
3109.07234,0.13003
3107.14364,0.12927
3105.21493,0.12848
3103.28623,0.12769
3101.35752,0.12690
3099.42882,0.12613
3097.50011,0.12538
3095.57141,0.12462
3093.64270,0.12383
3091.71400,0.12305
3089.78529,0.12228
3087.85659,0.12148
3085.92788,0.12068
3083.99918,0.11989
3082.07047,0.11909
3080.14177,0.11825
3078.21306,0.11742
3076.28436,0.11662
3074.35565,0.11583
3072.42695,0.11504
3070.49824,0.11424
3068.56954,0.11345
3066.64083,0.11268
3064.71213,0.11191
3062.78342,0.11112
3060.85472,0.11033
3058.92601,0.10956
3056.99731,0.10879
3055.06860,0.10802
3053.13990,0.10728
3051.21119,0.10655
3049.28249,0.10580
3047.35378,0.10504
3045.42508,0.10430
3043.49637,0.10358
3041.56767,0.10284
3039.63896,0.10210
3037.71026,0.10138
3035.78155,0.10069
3033.85285,0.10001
3031.92414,0.09933
3029.99544,0.09864
3028.06673,0.09794
3026.13803,0.09723
3024.20932,0.09652
3022.28062,0.09583
3020.35191,0.09514
3018.42321,0.09445
3016.49450,0.09378
3014.56580,0.09312
3012.63709,0.09247
3010.70839,0.09182
3008.77968,0.09115
3006.85098,0.09048
3004.92227,0.08984
3002.99357,0.08924
3001.06486,0.08865
2999.13616,0.08807
2997.20746,0.08750
2995.27875,0.08696
2993.35005,0.08643
2991.42134,0.08593
2989.49264,0.08546
2987.56393,0.08501
2985.63523,0.08460
2983.70652,0.08422
2981.77782,0.08384
2979.84911,0.08344
2977.92041,0.08303
2975.99170,0.08264
2974.06300,0.08224
2972.13429,0.08181
2970.20559,0.08138
2968.27688,0.08094
2966.34818,0.08050
2964.41947,0.08006
2962.49077,0.07960
2960.56206,0.07914
2958.63336,0.07865
2956.70465,0.07818
2954.77595,0.07770
2952.84724,0.07720
2950.91854,0.07669
2948.98983,0.07617
2947.06113,0.07564
2945.13242,0.07512
2943.20372,0.07463
2941.27501,0.07415
2939.34631,0.07368
2937.41760,0.07319
2935.48890,0.07268
2933.56019,0.07218
2931.63149,0.07168
2929.70278,0.07117
2927.77408,0.07066
2925.84537,0.07016
2923.91667,0.06965
2921.98796,0.06914
2920.05926,0.06862
2918.13055,0.06811
2916.20185,0.06760
2914.27314,0.06713
2912.34444,0.06668
2910.41573,0.06626
2908.48703,0.06582
2906.55832,0.06538
2904.62962,0.06495
2902.70091,0.06453
2900.77221,0.06412
2898.84350,0.06376
2896.91480,0.06341
2894.98609,0.06307
2893.05739,0.06273
2891.12868,0.06243
2889.19998,0.06217
2887.27127,0.06192
2885.34257,0.06169
2883.41386,0.06148
2881.48516,0.06128
2879.55645,0.06111
2877.62775,0.06097
2875.69904,0.06086
2873.77034,0.06076
2871.84163,0.06069
2869.91293,0.06062
2867.98422,0.06057
2866.05552,0.06053
2864.12682,0.06049
2862.19811,0.06044
2860.26941,0.06039
2858.34070,0.06035
2856.41200,0.06030
2854.48329,0.06023
2852.55459,0.06015
2850.62588,0.06011
2848.69718,0.06011
2846.76847,0.06013
2844.83977,0.06013
2842.91106,0.06013
2840.98236,0.06012
2839.05365,0.06011
2837.12495,0.06010
2835.19624,0.06008
2833.26754,0.06003
2831.33883,0.05997
2829.41013,0.05992
2827.48142,0.05986
2825.55272,0.05976
2823.62401,0.05963
2821.69531,0.05949
2819.76660,0.05936
2817.83790,0.05921
2815.90919,0.05902
2813.98049,0.05880
2812.05178,0.05855
2810.12308,0.05827
2808.19437,0.05798
2806.26567,0.05768
2804.33696,0.05739
2802.40826,0.05708
2800.47955,0.05674
2798.55085,0.05637
2796.62214,0.05603
2794.69344,0.05571
2792.76473,0.05538
2790.83603,0.05504
2788.90732,0.05471
2786.97862,0.05441
2785.04991,0.05411
2783.12121,0.05384
2781.19250,0.05360
2779.26380,0.05337
2777.33509,0.05315
2775.40639,0.05293
2773.47768,0.05272
2771.54898,0.05252
2769.62027,0.05234
2767.69157,0.05215
2765.76286,0.05196
2763.83416,0.05176
2761.90545,0.05155
2759.97675,0.05135
2758.04804,0.05117
2756.11934,0.05102
2754.19063,0.05089
2752.26193,0.05079
2750.33322,0.05068
2748.40452,0.05057
2746.47581,0.05043
2744.54711,0.05025
2742.61840,0.05007
2740.68970,0.04988
2738.76099,0.04967
2736.83229,0.04944
2734.90359,0.04920
2732.97488,0.04895
2731.04618,0.04869
2729.11747,0.04845
2727.18877,0.04825
2725.26006,0.04809
2723.33136,0.04796
2721.40265,0.04785
2719.47395,0.04777
2717.54524,0.04772
2715.61654,0.04768
2713.68783,0.04765
2711.75913,0.04763
2709.83042,0.04764
2707.90172,0.04765
2705.97301,0.04764
2704.04431,0.04762
2702.11560,0.04760
2700.18690,0.04759
2698.25819,0.04760
2696.32949,0.04763
2694.40078,0.04765
2692.47208,0.04765
2690.54337,0.04765
2688.61467,0.04766
2686.68596,0.04766
2684.75726,0.04762
2682.82855,0.04755
2680.89985,0.04745
2678.97114,0.04734
2677.04244,0.04720
2675.11373,0.04705
2673.18503,0.04687
2671.25632,0.04667
2669.32762,0.04647
2667.39891,0.04626
2665.47021,0.04608
2663.54150,0.04595
2661.61280,0.04584
2659.68409,0.04574
2657.75539,0.04563
2655.82668,0.04552
2653.89798,0.04542
2651.96927,0.04532
2650.04057,0.04520
2648.11186,0.04506
2646.18316,0.04494
2644.25445,0.04484
2642.32575,0.04474
2640.39704,0.04465
2638.46834,0.04455
2636.53963,0.04445
2634.61093,0.04436
2632.68222,0.04426
2630.75352,0.04414
2628.82481,0.04403
2626.89611,0.04393
2624.96740,0.04386
2623.03870,0.04378
2621.10999,0.04370
2619.18129,0.04363
2617.25258,0.04355
2615.32388,0.04346
2613.39517,0.04336
2611.46647,0.04325
2609.53776,0.04315
2607.60906,0.04307
2605.68036,0.04299
2603.75165,0.04291
2601.82295,0.04282
2599.89424,0.04270
2597.96554,0.04257
2596.03683,0.04246
2594.10813,0.04241
2592.17942,0.04238
2590.25072,0.04230
2588.32201,0.04221
2586.39331,0.04216
2584.46460,0.04215
2582.53590,0.04213
2580.60719,0.04211
2578.67849,0.04208
2576.74978,0.04203
2574.82108,0.04196
2572.89237,0.04190
2570.96367,0.04185
2569.03496,0.04183
2567.10626,0.04180
2565.17755,0.04174
2563.24885,0.04166
2561.32014,0.04158
2559.39144,0.04152
2557.46273,0.04146
2555.53403,0.04139
2553.60532,0.04132
2551.67662,0.04124
2549.74791,0.04111
2547.81921,0.04097
2545.89050,0.04087
2543.96180,0.04078
2542.03309,0.04067
2540.10439,0.04054
2538.17568,0.04042
2536.24698,0.04032
2534.31827,0.04025
2532.38957,0.04018
2530.46086,0.04009
2528.53216,0.03997
2526.60345,0.03985
2524.67475,0.03974
2522.74604,0.03965
2520.81734,0.03959
2518.88863,0.03958
2516.95993,0.03957
2515.03122,0.03950
2513.10252,0.03940
2511.17381,0.03933
2509.24511,0.03928
2507.31640,0.03924
2505.38770,0.03919
2503.45899,0.03914
2501.53029,0.03909
2499.60158,0.03902
2497.67288,0.03891
2495.74417,0.03880
2493.81547,0.03869
2491.88676,0.03859
2489.95806,0.03849
2488.02935,0.03840
2486.10065,0.03832
2484.17194,0.03824
2482.24324,0.03815
2480.31453,0.03805
2478.38583,0.03797
2476.45713,0.03788
2474.52842,0.03777
2472.59972,0.03764
2470.67101,0.03751
2468.74231,0.03738
2466.81360,0.03724
2464.88490,0.03711
2462.95619,0.03699
2461.02749,0.03688
2459.09878,0.03679
2457.17008,0.03672
2455.24137,0.03664
2453.31267,0.03652
2451.38396,0.03638
2449.45526,0.03624
2447.52655,0.03608
2445.59785,0.03590
2443.66914,0.03573
2441.74044,0.03561
2439.81173,0.03551
2437.88303,0.03539
2435.95432,0.03527
2434.02562,0.03514
2432.09691,0.03502
2430.16821,0.03489
2428.23950,0.03477
2426.31080,0.03466
2424.38209,0.03454
2422.45339,0.03440
2420.52468,0.03426
2418.59598,0.03417
2416.66727,0.03409
2414.73857,0.03398
2412.80986,0.03384
2410.88116,0.03370
2408.95245,0.03355
2407.02375,0.03336
2405.09504,0.03318
2403.16634,0.03306
2401.23763,0.03297
2399.30893,0.03288
2397.38022,0.03278
2395.45152,0.03268
2393.52281,0.03257
2391.59411,0.03246
2389.66540,0.03238
2387.73670,0.03233
2385.80799,0.03228
2383.87929,0.03229
2381.95058,0.03240
2380.02188,0.03259
2378.09317,0.03291
2376.16447,0.03338
2374.23576,0.03398
2372.30706,0.03469
2370.37835,0.03545
2368.44965,0.03617
2366.52094,0.03680
2364.59224,0.03730
2362.66353,0.03763
2360.73483,0.03766
2358.80612,0.03735
2356.87742,0.03671
2354.94871,0.03579
2353.02001,0.03468
2351.09130,0.03364
2349.16260,0.03316
2347.23389,0.03348
2345.30519,0.03429
2343.37649,0.03510
2341.44778,0.03567
2339.51908,0.03600
2337.59037,0.03614
2335.66167,0.03614
2333.73296,0.03603
2331.80426,0.03582
2329.87555,0.03554
2327.94685,0.03541
2326.01814,0.03563
2324.08944,0.03591
2322.16073,0.03572
2320.23203,0.03515
2318.30332,0.03458
2316.37462,0.03412
2314.44591,0.03375
2312.51721,0.03346
2310.58850,0.03323
2308.65980,0.03302
2306.73109,0.03285
2304.80239,0.03274
2302.87368,0.03267
2300.94498,0.03263
2299.01627,0.03261
2297.08757,0.03264
2295.15886,0.03272
2293.23016,0.03284
2291.30145,0.03301
2289.37275,0.03322
2287.44404,0.03343
2285.51534,0.03359
2283.58663,0.03365
2281.65793,0.03366
2279.72922,0.03367
2277.80052,0.03369
2275.87181,0.03374
2273.94311,0.03384
2272.01440,0.03392
2270.08570,0.03402
2268.15699,0.03415
2266.22829,0.03427
2264.29958,0.03434
2262.37088,0.03440
2260.44217,0.03457
2258.51347,0.03481
2256.58476,0.03497
2254.65606,0.03498
2252.72735,0.03494
2250.79865,0.03498
2248.86994,0.03511
2246.94124,0.03533
2245.01253,0.03557
2243.08383,0.03577
2241.15512,0.03597
2239.22642,0.03619
2237.29771,0.03638
2235.36901,0.03655
2233.44030,0.03673
2231.51160,0.03691
2229.58289,0.03708
2227.65419,0.03730
2225.72548,0.03753
2223.79678,0.03770
2221.86807,0.03783
2219.93937,0.03797
2218.01066,0.03812
2216.08196,0.03824
2214.15326,0.03840
2212.22455,0.03859
2210.29585,0.03876
2208.36714,0.03892
2206.43844,0.03905
2204.50973,0.03919
2202.58103,0.03937
2200.65232,0.03958
2198.72362,0.03977
2196.79491,0.03992
2194.86621,0.04003
2192.93750,0.04022
2191.00880,0.04047
2189.08009,0.04067
2187.15139,0.04078
2185.22268,0.04085
2183.29398,0.04080
2181.36527,0.04056
2179.43657,0.04030
2177.50786,0.04013
2175.57916,0.03991
2173.65045,0.03977
2171.72175,0.03992
2169.79304,0.04025
2167.86434,0.04060
2165.93563,0.04092
2164.00693,0.04132
2162.07822,0.04173
2160.14952,0.04108
2158.22081,0.03880
2156.29211,0.03666
2154.36340,0.03594
2152.43470,0.03587
2150.50599,0.03579
2148.57729,0.03552
2146.64858,0.03508
2144.71988,0.03462
2142.79117,0.03427
2140.86247,0.03399
2138.93376,0.03364
2137.00506,0.03305
2135.07635,0.03216
2133.14765,0.03127
2131.21894,0.03076
2129.29024,0.03061
2127.36153,0.03053
2125.43283,0.03038
2123.50412,0.03024
2121.57542,0.03015
2119.64671,0.03013
2117.71801,0.03014
2115.78930,0.03018
2113.86060,0.03019
2111.93189,0.03010
2110.00319,0.02993
2108.07448,0.02977
2106.14578,0.02963
2104.21707,0.02948
2102.28837,0.02930
2100.35966,0.02910
2098.43096,0.02883
2096.50225,0.02842
2094.57355,0.02795
2092.64484,0.02768
2090.71614,0.02768
2088.78743,0.02777
2086.85873,0.02782
2084.93003,0.02786
2083.00132,0.02788
2081.07262,0.02791
2079.14391,0.02797
2077.21521,0.02800
2075.28650,0.02797
2073.35780,0.02797
2071.42909,0.02803
2069.50039,0.02808
2067.57168,0.02805
2065.64298,0.02799
2063.71427,0.02801
2061.78557,0.02809
2059.85686,0.02816
2057.92816,0.02819
2055.99945,0.02824
2054.07075,0.02843
2052.14204,0.02896
2050.21334,0.02950
2048.28463,0.02953
2046.35593,0.02929
2044.42722,0.02919
2042.49852,0.02920
2040.56981,0.02932
2038.64111,0.02951
2036.71240,0.02965
2034.78370,0.02961
2032.85499,0.02941
2030.92629,0.02916
2028.99758,0.02886
2027.06888,0.02850
2025.14017,0.02821
2023.21147,0.02810
2021.28276,0.02804
2019.35406,0.02791
2017.42535,0.02771
2015.49665,0.02746
2013.56794,0.02726
2011.63924,0.02710
2009.71053,0.02679
2007.78183,0.02613
2005.85312,0.02532
2003.92442,0.02480
2001.99571,0.02465
2000.06701,0.02467
1998.13830,0.02470
1996.20960,0.02475
1994.28089,0.02473
1992.35219,0.02457
1990.42348,0.02440
1988.49478,0.02437
1986.56607,0.02443
1984.63737,0.02450
1982.70866,0.02478
1980.77996,0.02531
1978.85125,0.02546
1976.92255,0.02473
1974.99384,0.02375
1973.06514,0.02312
1971.13643,0.02275
1969.20773,0.02248
1967.27902,0.02215
1965.35032,0.02176
1963.42161,0.02142
1961.49291,0.02100
1959.56420,0.02042
1957.63550,0.02000
1955.70679,0.01986
1953.77809,0.01979
1951.84939,0.01966
1949.92068,0.01945
1947.99198,0.01919
1946.06327,0.01887
1944.13457,0.01852
1942.20586,0.01822
1940.27716,0.01796
1938.34845,0.01771
1936.41975,0.01747
1934.49104,0.01722
1932.56234,0.01699
1930.63363,0.01678
1928.70493,0.01660
1926.77622,0.01645
1924.84752,0.01630
1922.91881,0.01615
1920.99011,0.01604
1919.06140,0.01595
1917.13270,0.01580
1915.20399,0.01559
1913.27529,0.01540
1911.34658,0.01523
1909.41788,0.01505
1907.48917,0.01487
1905.56047,0.01472
1903.63176,0.01458
1901.70306,0.01444
1899.77435,0.01430
1897.84565,0.01415
1895.91694,0.01400
1893.98824,0.01386
1892.05953,0.01374
1890.13083,0.01363
1888.20212,0.01350
1886.27342,0.01334
1884.34471,0.01318
1882.41601,0.01306
1880.48730,0.01294
1878.55860,0.01281
1876.62989,0.01266
1874.70119,0.01255
1872.77248,0.01247
1870.84378,0.01241
1868.91507,0.01232
1866.98637,0.01220
1865.05766,0.01208
1863.12896,0.01197
1861.20025,0.01184
1859.27155,0.01170
1857.34284,0.01158
1855.41414,0.01146
1853.48543,0.01134
1851.55673,0.01122
1849.62802,0.01112
1847.69932,0.01105
1845.77061,0.01102
1843.84191,0.01093
1841.91320,0.01074
1839.98450,0.01054
1838.05579,0.01042
1836.12709,0.01032
1834.19838,0.01024
1832.26968,0.01017
1830.34097,0.01013
1828.41227,0.01006
1826.48356,0.00997
1824.55486,0.00987
1822.62616,0.00975
1820.69745,0.00957
1818.76875,0.00931
1816.84004,0.00903
1814.91134,0.00890
1812.98263,0.00892
1811.05393,0.00894
1809.12522,0.00891
1807.19652,0.00887
1805.26781,0.00884
1803.33911,0.00883
1801.41040,0.00884
1799.48170,0.00882
1797.55299,0.00878
1795.62429,0.00879
1793.69558,0.00884
1791.76688,0.00886
1789.83817,0.00882
1787.90947,0.00880
1785.98076,0.00885
1784.05206,0.00891
1782.12335,0.00897
1780.19465,0.00900
1778.26594,0.00900
1776.33724,0.00908
1774.40853,0.00929
1772.47983,0.00949
1770.55112,0.00955
1768.62242,0.00954
1766.69371,0.00953
1764.76501,0.00953
1762.83630,0.00957
1760.90760,0.00957
1758.97889,0.00952
1757.05019,0.00945
1755.12148,0.00941
1753.19278,0.00945
1751.26407,0.00951
1749.33537,0.00950
1747.40666,0.00944
1745.47796,0.00942
1743.54925,0.00947
1741.62055,0.00959
1739.69184,0.00971
1737.76314,0.00987
1735.83443,0.01016
1733.90573,0.01043
1731.97702,0.01050
1730.04832,0.01056
1728.11961,0.01078
1726.19091,0.01110
1724.26220,0.01149
1722.33350,0.01197
1720.40479,0.01261
1718.47609,0.01334
1716.54738,0.01396
1714.61868,0.01442
1712.68997,0.01494
1710.76127,0.01562
1708.83256,0.01647
1706.90386,0.01743
1704.97515,0.01849
1703.04645,0.01971
1701.11774,0.02106
1699.18904,0.02234
1697.26033,0.02356
1695.33163,0.02481
1693.40293,0.02609
1691.47422,0.02762
1689.54552,0.02957
1687.61681,0.03201
1685.68811,0.03494
1683.75940,0.03813
1681.83070,0.04148
1679.90199,0.04521
1677.97329,0.04934
1676.04458,0.05362
1674.11588,0.05797
1672.18717,0.06268
1670.25847,0.06807
1668.32976,0.07412
1666.40106,0.08064
1664.47235,0.08749
1662.54365,0.09431
1660.61494,0.10071
1658.68624,0.10672
1656.75753,0.11269
1654.82883,0.11883
1652.90012,0.12466
1650.97142,0.12948
1649.04271,0.13328
1647.11401,0.13628
1645.18530,0.13835
1643.25660,0.13981
1641.32789,0.14133
1639.39919,0.14337
1637.47048,0.14611
1635.54178,0.14937
1633.61307,0.15281
1631.68437,0.15632
1629.75566,0.15983
1627.82696,0.16308
1625.89825,0.16578
1623.96955,0.16768
1622.04084,0.16852
1620.11214,0.16821
1618.18343,0.16678
1616.25473,0.16412
1614.32602,0.16042
1612.39732,0.15622
1610.46861,0.15191
1608.53991,0.14780
1606.61120,0.14424
1604.68250,0.14153
1602.75379,0.13987
1600.82509,0.13937
1598.89638,0.14012
1596.96768,0.14214
1595.03897,0.14534
1593.11027,0.14947
1591.18156,0.15414
1589.25286,0.15898
1587.32415,0.16366
1585.39545,0.16801
1583.46674,0.17191
1581.53804,0.17535
1579.60933,0.17838
1577.68063,0.18100
1575.75192,0.18308
1573.82322,0.18460
1571.89451,0.18598
1569.96581,0.18747
1568.03710,0.18907
1566.10840,0.19093
1564.17970,0.19335
1562.25099,0.19658
1560.32229,0.20062
1558.39358,0.20503
1556.46488,0.20954
1554.53617,0.21432
1552.60747,0.21933
1550.67876,0.22428
1548.75006,0.22891
1546.82135,0.23305
1544.89265,0.23662
1542.96394,0.23966
1541.03524,0.24222
1539.10653,0.24426
1537.17783,0.24586
1535.24912,0.24737
1533.32042,0.24884
1531.39171,0.25008
1529.46301,0.25100
1527.53430,0.25141
1525.60560,0.25095
1523.67689,0.24940
1521.74819,0.24663
1519.81948,0.24260
1517.89078,0.23761
1515.96207,0.23203
1514.03337,0.22619
1512.10466,0.22034
1510.17596,0.21465
1508.24725,0.20911
1506.31855,0.20342
1504.38984,0.19750
1502.46114,0.19171
1500.53243,0.18620
1498.60373,0.18083
1496.67502,0.17541
1494.74632,0.16994
1492.81761,0.16469
1490.88891,0.15987
1488.96020,0.15558
1487.03150,0.15211
1485.10279,0.14988
1483.17409,0.14931
1481.24538,0.15070
1479.31668,0.15423
1477.38797,0.15980
1475.45927,0.16700
1473.53056,0.17514
1471.60186,0.18330
1469.67315,0.19050
1467.74445,0.19599
1465.81574,0.19930
1463.88704,0.20048
1461.95833,0.20034
1460.02963,0.19992
1458.10092,0.19982
1456.17222,0.20020
1454.24351,0.20129
1452.31481,0.20353
1450.38610,0.20719
1448.45740,0.21230
1446.52869,0.21873
1444.59999,0.22630
1442.67128,0.23478
1440.74258,0.24383
1438.81387,0.25299
1436.88517,0.26148
1434.95646,0.26827
1433.02776,0.27271
1431.09906,0.27478
1429.17035,0.27482
1427.24165,0.27344
1425.31294,0.27124
1423.38424,0.26868
1421.45553,0.26607
1419.52683,0.26350
1417.59812,0.26090
1415.66942,0.25825
1413.74071,0.25555
1411.81201,0.25269
1409.88330,0.24966
1407.95460,0.24655
1406.02589,0.24345
1404.09719,0.24040
1402.16848,0.23742
1400.23978,0.23452
1398.31107,0.23163
1396.38237,0.22871
1394.45366,0.22574
1392.52496,0.22274
1390.59625,0.21983
1388.66755,0.21707
1386.73884,0.21442
1384.81014,0.21188
1382.88143,0.20954
1380.95273,0.20747
1379.02402,0.20567
1377.09532,0.20420
1375.16661,0.20312
1373.23791,0.20253
1371.30920,0.20256
1369.38050,0.20337
1367.45179,0.20493
1365.52309,0.20694
1363.59438,0.20893
1361.66568,0.21041
1359.73697,0.21128
1357.80827,0.21179
1355.87956,0.21227
1353.95086,0.21284
1352.02215,0.21348
1350.09345,0.21414
1348.16474,0.21479
1346.23604,0.21539
1344.30733,0.21590
1342.37863,0.21628
1340.44992,0.21656
1338.52122,0.21672
1336.59251,0.21679
1334.66381,0.21687
1332.73510,0.21704
1330.80640,0.21734
1328.87769,0.21775
1326.94899,0.21822
1325.02028,0.21867
1323.09158,0.21904
1321.16287,0.21925
1319.23417,0.21926
1317.30546,0.21905
1315.37676,0.21866
1313.44805,0.21816
1311.51935,0.21762
1309.59064,0.21709
1307.66194,0.21651
1305.73323,0.21569
1303.80453,0.21450
1301.87583,0.21288
1299.94712,0.21089
1298.01842,0.20867
1296.08971,0.20632
1294.16101,0.20395
1292.23230,0.20161
1290.30360,0.19936
1288.37489,0.19725
1286.44619,0.19534
1284.51748,0.19364
1282.58878,0.19215
1280.66007,0.19085
1278.73137,0.18968
1276.80266,0.18864
1274.87396,0.18775
1272.94525,0.18703
1271.01655,0.18648
1269.08784,0.18611
1267.15914,0.18588
1265.23043,0.18572
1263.30173,0.18556
1261.37302,0.18532
1259.44432,0.18494
1257.51561,0.18441
1255.58691,0.18374
1253.65820,0.18297
1251.72950,0.18210
1249.80079,0.18115
1247.87209,0.18014
1245.94338,0.17910
1244.01468,0.17802
1242.08597,0.17692
1240.15727,0.17578
1238.22856,0.17459
1236.29986,0.17332
1234.37115,0.17201
1232.44245,0.17066
1230.51374,0.16929
1228.58504,0.16792
1226.65633,0.16655
1224.72763,0.16519
1222.79892,0.16383
1220.87022,0.16248
1218.94151,0.16119
1217.01281,0.16001
1215.08410,0.15899
1213.15540,0.15817
1211.22669,0.15758
1209.29799,0.15726
1207.36928,0.15731
1205.44058,0.15778
1203.51187,0.15863
1201.58317,0.15972
1199.65446,0.16086
1197.72576,0.16185
1195.79705,0.16260
1193.86835,0.16313
1191.93964,0.16356
1190.01094,0.16394
1188.08223,0.16419
1186.15353,0.16419
1184.22482,0.16382
1182.29612,0.16320
1180.36741,0.16260
1178.43871,0.16225
1176.51000,0.16223
1174.58130,0.16240
1172.65260,0.16239
1170.72389,0.16186
1168.79519,0.16068
1166.86648,0.15896
1164.93778,0.15694
1163.00907,0.15487
1161.08037,0.15293
1159.15166,0.15123
1157.22296,0.14980
1155.29425,0.14862
1153.36555,0.14761
1151.43684,0.14668
1149.50814,0.14574
1147.57943,0.14478
1145.65073,0.14384
1143.72202,0.14295
1141.79332,0.14210
1139.86461,0.14127
1137.93591,0.14046
1136.00720,0.13966
1134.07850,0.13887
1132.14979,0.13813
1130.22109,0.13745
1128.29238,0.13682
1126.36368,0.13622
1124.43497,0.13569
1122.50627,0.13532
1120.57756,0.13517
1118.64886,0.13533
1116.72015,0.13577
1114.79145,0.13626
1112.86274,0.13665
1110.93404,0.13699
1109.00533,0.13721
1107.07663,0.13709
1105.14792,0.13651
1103.21922,0.13565
1101.29051,0.13475
1099.36181,0.13391
1097.43310,0.13313
1095.50440,0.13242
1093.57569,0.13177
1091.64699,0.13117
1089.71828,0.13057
1087.78958,0.12999
1085.86087,0.12941
1083.93217,0.12879
1082.00346,0.12813
1080.07476,0.12746
1078.14605,0.12680
1076.21735,0.12615
1074.28864,0.12550
1072.35994,0.12485
1070.43123,0.12419
1068.50253,0.12356
1066.57382,0.12297
1064.64512,0.12240
1062.71641,0.12180
1060.78771,0.12119
1058.85900,0.12064
1056.93030,0.12018
1055.00159,0.11981
1053.07289,0.11954
1051.14418,0.11948
1049.21548,0.11981
1047.28677,0.12068
1045.35807,0.12233
1043.42936,0.12502
1041.50066,0.12901
1039.57196,0.13429
1037.64325,0.14047
1035.71455,0.14680
1033.78584,0.15247
1031.85714,0.15699
1029.92843,0.16036
1027.99973,0.16285
1026.07102,0.16466
1024.14232,0.16578
1022.21361,0.16612
1020.28491,0.16566
1018.35620,0.16446
1016.42750,0.16271
1014.49879,0.16061
1012.57009,0.15832
1010.64138,0.15596
1008.71268,0.15356
1006.78397,0.15113
1004.85527,0.14868
1002.92656,0.14621
1000.99786,0.14377
999.06915,0.14140
997.14045,0.13922
995.21174,0.13737
993.28304,0.13588
991.35433,0.13471
989.42563,0.13373
987.49692,0.13278
985.56822,0.13176
983.63951,0.13068
981.71081,0.12955
979.78210,0.12835
977.85340,0.12710
975.92469,0.12580
973.99599,0.12448
972.06728,0.12315
970.13858,0.12186
968.20987,0.12066
966.28117,0.11957
964.35246,0.11858
962.42376,0.11766
960.49505,0.11681
958.56635,0.11602
956.63764,0.11524
954.70894,0.11440
952.78023,0.11349
950.85153,0.11255
948.92282,0.11162
946.99412,0.11071
945.06541,0.10981
943.13671,0.10895
941.20800,0.10812
939.27930,0.10733
937.35059,0.10655
935.42189,0.10581
933.49318,0.10513
931.56448,0.10450
929.63577,0.10393
927.70707,0.10340
925.77836,0.10289
923.84966,0.10243
921.92095,0.10205
919.99225,0.10168
918.06354,0.10131
916.13484,0.10096
914.20613,0.10063
912.27743,0.10031
910.34873,0.10002
908.42002,0.09974
906.49132,0.09948
904.56261,0.09924
902.63391,0.09904
900.70520,0.09888
898.77650,0.09874
896.84779,0.09863
894.91909,0.09857
892.99038,0.09859
891.06168,0.09868
889.13297,0.09881
887.20427,0.09893
885.27556,0.09906
883.34686,0.09919
881.41815,0.09936
879.48945,0.09957
877.56074,0.09975
875.63204,0.09986
873.70333,0.09990
871.77463,0.09991
869.84592,0.09988
867.91722,0.09977
865.98851,0.09960
864.05981,0.09937
862.13110,0.09910
860.20240,0.09880
858.27369,0.09850
856.34499,0.09825
854.41628,0.09803
852.48758,0.09788
850.55887,0.09776
848.63017,0.09768
846.70146,0.09766
844.77276,0.09776
842.84405,0.09799
840.91535,0.09838
838.98664,0.09897
837.05794,0.09981
835.12923,0.10101
833.20053,0.10270
831.27182,0.10501
829.34312,0.10817
827.41441,0.11252
825.48571,0.11860
823.55700,0.12727
821.62830,0.13956
819.69959,0.15637
817.77089,0.17809
815.84218,0.20383
813.91348,0.23069
811.98477,0.25386
810.05607,0.26864
808.12736,0.27256
806.19866,0.26568
804.26995,0.25072
802.34125,0.23286
800.41254,0.21616
798.48384,0.20118
796.55513,0.18804
794.62643,0.17803
792.69772,0.17151
790.76902,0.16754
788.84031,0.16509
786.91161,0.16345
784.98290,0.16230
783.05420,0.16164
781.12550,0.16143
779.19679,0.16159
777.26809,0.16207
775.33938,0.16289
773.41068,0.16392
771.48197,0.16484
769.55327,0.16536
767.62456,0.16551
765.69586,0.16550
763.76715,0.16540
761.83845,0.16503
759.90974,0.16426
757.98104,0.16302
756.05233,0.16138
754.12363,0.15977
752.19492,0.15857
750.26622,0.15739
748.33751,0.15540
746.40881,0.15248
744.48010,0.14952
742.55140,0.14800
740.62269,0.14911
738.69399,0.15283
736.76528,0.15770
734.83658,0.16192
732.90787,0.16460
730.97917,0.16583
729.05046,0.16617
727.12176,0.16610
725.19305,0.16587
723.26435,0.16562
721.33564,0.16543
719.40694,0.16524
717.47823,0.16501
715.54953,0.16482
713.62082,0.16472
711.69212,0.16468
709.76341,0.16474
707.83471,0.16491
705.90600,0.16508
703.97730,0.16524
702.04859,0.16543
700.11989,0.16575
698.19118,0.16627
696.26248,0.16690
694.33377,0.16749
692.40507,0.16805
690.47636,0.16862
688.54766,0.16914
686.61895,0.16958
684.69025,0.16992
682.76154,0.17037
680.83284,0.17143
678.90413,0.17377
676.97543,0.17711
675.04672,0.17994
673.11802,0.18131
671.18931,0.18203
669.26061,0.18296
667.33190,0.18345
665.40320,0.18306
663.47449,0.18287
661.54579,0.18348
659.61708,0.18444
657.68838,0.18542
655.75967,0.18637
653.83097,0.18747
651.90226,0.18881
649.97356,0.19028
648.04486,0.19182
646.11615,0.19337
644.18745,0.19489
642.25874,0.19633
640.33004,0.19777
638.40133,0.19944
636.47263,0.20157
634.54392,0.20407
632.61522,0.20669
630.68651,0.20942
628.75781,0.21231
626.82910,0.21525
624.90040,0.21798
622.97169,0.22025
621.04299,0.22236
619.11428,0.22488
617.18558,0.22776
615.25687,0.23073
613.32817,0.23373
611.39946,0.23595
609.47076,0.23641
607.54205,0.23536
605.61335,0.23351
603.68464,0.23080
601.75594,0.22666
599.82723,0.22101
597.89853,0.21465
595.96982,0.21018
594.04112,0.21122
592.11241,0.21805
590.18371,0.22776
588.25500,0.23946
586.32630,0.25287
584.39759,0.26365
582.46889,0.26787
580.54018,0.26702
578.61148,0.26415
576.68277,0.26023
574.75407,0.25652
572.82536,0.25449
570.89666,0.25279
568.96795,0.25006
567.03925,0.24772
565.11054,0.24683
563.18184,0.24615
561.25313,0.24441
559.32443,0.24118
557.39572,0.23731
555.46702,0.23420
553.53831,0.23114
551.60961,0.22774
549.68090,0.22657
547.75220,0.22794
545.82349,0.22737
543.89479,0.22106
541.96608,0.21026
540.03738,0.20257
538.10867,0.20604
536.17997,0.21788
534.25126,0.22693
532.32256,0.22551
530.39385,0.21807
528.46515,0.21964
526.53644,0.23121
524.60774,0.23309
522.67903,0.21867
520.75033,0.19722
518.82163,0.16952
516.89292,0.15695
514.96422,0.18746
