4497.73989,0.02954
4495.81118,0.02954
4493.88248,0.02956
4491.95377,0.02958
4490.02507,0.02959
4488.09636,0.02955
4486.16766,0.02949
4484.23895,0.02944
4482.31025,0.02945
4480.38154,0.02948
4478.45284,0.02950
4476.52413,0.02947
4474.59543,0.02942
4472.66672,0.02937
4470.73802,0.02935
4468.80931,0.02932
4466.88061,0.02928
4464.95190,0.02926
4463.02320,0.02923
4461.09449,0.02918
4459.16579,0.02914
4457.23708,0.02912
4455.30838,0.02909
4453.37967,0.02905
4451.45097,0.02904
4449.52226,0.02903
4447.59356,0.02902
4445.66485,0.02903
4443.73615,0.02903
4441.80744,0.02903
4439.87874,0.02904
4437.95003,0.02905
4436.02133,0.02902
4434.09262,0.02898
4432.16392,0.02895
4430.23522,0.02895
4428.30651,0.02894
4426.37781,0.02892
4424.44910,0.02890
4422.52040,0.02886
4420.59169,0.02881
4418.66299,0.02879
4416.73428,0.02879
4414.80558,0.02880
4412.87687,0.02878
4410.94817,0.02873
4409.01946,0.02868
4407.09076,0.02868
4405.16205,0.02869
4403.23335,0.02871
4401.30464,0.02871
4399.37594,0.02865
4397.44723,0.02860
4395.51853,0.02859
4393.58982,0.02861
4391.66112,0.02860
4389.73241,0.02855
4387.80371,0.02852
4385.87500,0.02851
4383.94630,0.02851
4382.01759,0.02851
4380.08889,0.02849
4378.16018,0.02848
4376.23148,0.02846
4374.30277,0.02846
4372.37407,0.02848
4370.44536,0.02848
4368.51666,0.02845
4366.58795,0.02838
4364.65925,0.02836
4362.73054,0.02838
4360.80184,0.02838
4358.87313,0.02833
4356.94443,0.02830
4355.01572,0.02829
4353.08702,0.02829
4351.15831,0.02831
4349.22961,0.02834
4347.30090,0.02833
4345.37220,0.02826
4343.44349,0.02819
4341.51479,0.02817
4339.58608,0.02817
4337.65738,0.02818
4335.72867,0.02819
4333.79997,0.02817
4331.87126,0.02815
4329.94256,0.02816
4328.01385,0.02816
4326.08515,0.02813
4324.15644,0.02809
4322.22774,0.02807
4320.29903,0.02807
4318.37033,0.02807
4316.44162,0.02805
4314.51292,0.02804
4312.58421,0.02803
4310.65551,0.02798
4308.72680,0.02793
4306.79810,0.02792
4304.86939,0.02793
4302.94069,0.02793
4301.01199,0.02791
4299.08328,0.02789
4297.15458,0.02787
4295.22587,0.02783
4293.29717,0.02779
4291.36846,0.02775
4289.43976,0.02776
4287.51105,0.02777
4285.58235,0.02775
4283.65364,0.02772
4281.72494,0.02771
4279.79623,0.02774
4277.86753,0.02772
4275.93882,0.02767
4274.01012,0.02763
4272.08141,0.02764
4270.15271,0.02763
4268.22400,0.02760
4266.29530,0.02759
4264.36659,0.02759
4262.43789,0.02757
4260.50918,0.02755
4258.58048,0.02755
4256.65177,0.02756
4254.72307,0.02753
4252.79436,0.02748
4250.86566,0.02746
4248.93695,0.02748
4247.00825,0.02749
4245.07954,0.02748
4243.15084,0.02746
4241.22213,0.02745
4239.29343,0.02745
4237.36472,0.02743
4235.43602,0.02740
4233.50731,0.02739
4231.57861,0.02740
4229.64990,0.02741
4227.72120,0.02740
4225.79249,0.02739
4223.86379,0.02739
4221.93508,0.02737
4220.00638,0.02734
4218.07767,0.02732
4216.14897,0.02730
4214.22026,0.02729
4212.29156,0.02731
4210.36285,0.02733
4208.43415,0.02733
4206.50544,0.02731
4204.57674,0.02729
4202.64803,0.02728
4200.71933,0.02729
4198.79062,0.02730
4196.86192,0.02729
4194.93321,0.02727
4193.00451,0.02726
4191.07580,0.02726
4189.14710,0.02727
4187.21839,0.02727
4185.28969,0.02725
4183.36098,0.02720
4181.43228,0.02716
4179.50357,0.02716
4177.57487,0.02718
4175.64616,0.02718
4173.71746,0.02717
4171.78875,0.02716
4169.86005,0.02713
4167.93135,0.02712
4166.00264,0.02711
4164.07394,0.02707
4162.14523,0.02703
4160.21653,0.02699
4158.28782,0.02696
4156.35912,0.02694
4154.43041,0.02694
4152.50171,0.02695
4150.57300,0.02694
4148.64430,0.02693
4146.71559,0.02693
4144.78689,0.02694
4142.85818,0.02691
4140.92948,0.02688
4139.00077,0.02685
4137.07207,0.02682
4135.14336,0.02679
4133.21466,0.02677
4131.28595,0.02678
4129.35725,0.02678
4127.42854,0.02675
4125.49984,0.02672
4123.57113,0.02672
4121.64243,0.02673
4119.71372,0.02672
4117.78502,0.02671
4115.85631,0.02671
4113.92761,0.02669
4111.99890,0.02665
4110.07020,0.02663
4108.14149,0.02663
4106.21279,0.02663
4104.28408,0.02662
4102.35538,0.02662
4100.42667,0.02660
4098.49797,0.02658
4096.56926,0.02655
4094.64056,0.02653
4092.71185,0.02652
4090.78315,0.02650
4088.85444,0.02647
4086.92574,0.02643
4084.99703,0.02640
4083.06833,0.02640
4081.13962,0.02640
4079.21092,0.02640
4077.28221,0.02639
4075.35351,0.02640
4073.42480,0.02640
4071.49610,0.02637
4069.56739,0.02635
4067.63869,0.02635
4065.70998,0.02634
4063.78128,0.02634
4061.85257,0.02634
4059.92387,0.02632
4057.99516,0.02630
4056.06646,0.02628
4054.13775,0.02626
4052.20905,0.02625
4050.28034,0.02625
4048.35164,0.02624
4046.42293,0.02620
4044.49423,0.02619
4042.56552,0.02620
4040.63682,0.02619
4038.70812,0.02614
4036.77941,0.02608
4034.85071,0.02605
4032.92200,0.02606
4030.99330,0.02605
4029.06459,0.02602
4027.13589,0.02598
4025.20718,0.02594
4023.27848,0.02591
4021.34977,0.02589
4019.42107,0.02588
4017.49236,0.02584
4015.56366,0.02580
4013.63495,0.02579
4011.70625,0.02577
4009.77754,0.02575
4007.84884,0.02575
4005.92013,0.02576
4003.99143,0.02575
4002.06272,0.02575
4000.13402,0.02574
3998.20531,0.02572
3996.27661,0.02571
3994.34790,0.02570
3992.41920,0.02566
3990.49049,0.02563
3988.56179,0.02561
3986.63308,0.02560
3984.70438,0.02559
3982.77567,0.02558
3980.84697,0.02554
3978.91826,0.02550
3976.98956,0.02548
3975.06085,0.02548
3973.13215,0.02547
3971.20344,0.02544
3969.27474,0.02539
3967.34603,0.02535
3965.41733,0.02532
3963.48862,0.02530
3961.55992,0.02529
3959.63121,0.02528
3957.70251,0.02525
3955.77380,0.02522
3953.84510,0.02521
3951.91639,0.02521
3949.98769,0.02519
3948.05898,0.02516
3946.13028,0.02515
3944.20157,0.02514
3942.27287,0.02511
3940.34416,0.02507
3938.41546,0.02504
3936.48675,0.02502
3934.55805,0.02503
3932.62934,0.02503
3930.70064,0.02501
3928.77193,0.02499
3926.84323,0.02500
3924.91452,0.02500
3922.98582,0.02499
3921.05711,0.02500
3919.12841,0.02504
3917.19970,0.02504
3915.27100,0.02500
3913.34229,0.02497
3911.41359,0.02498
3909.48489,0.02501
3907.55618,0.02508
3905.62748,0.02521
3903.69877,0.02533
3901.77007,0.02539
3899.84136,0.02536
3897.91266,0.02526
3895.98395,0.02519
3894.05525,0.02523
3892.12654,0.02533
3890.19784,0.02535
3888.26913,0.02534
3886.34043,0.02538
3884.41172,0.02535
3882.48302,0.02526
3880.55431,0.02519
3878.62561,0.02508
3876.69690,0.02499
3874.76820,0.02500
3872.83949,0.02508
3870.91079,0.02516
3868.98208,0.02512
3867.05338,0.02501
3865.12467,0.02496
3863.19597,0.02489
3861.26726,0.02476
3859.33856,0.02470
3857.40985,0.02488
3855.48115,0.02531
3853.55244,0.02556
3851.62374,0.02527
3849.69503,0.02479
3847.76633,0.02453
3845.83762,0.02450
3843.90892,0.02455
3841.98021,0.02461
3840.05151,0.02474
3838.12280,0.02481
3836.19410,0.02465
3834.26539,0.02440
3832.33669,0.02423
3830.40798,0.02413
3828.47928,0.02406
3826.55057,0.02399
3824.62187,0.02398
3822.69316,0.02407
3820.76446,0.02414
3818.83575,0.02412
3816.90705,0.02412
3814.97834,0.02403
3813.04964,0.02381
3811.12093,0.02370
3809.19223,0.02376
3807.26352,0.02382
3805.33482,0.02378
3803.40611,0.02381
3801.47741,0.02386
3799.54870,0.02372
3797.62000,0.02353
3795.69129,0.02342
3793.76259,0.02331
3791.83388,0.02322
3789.90518,0.02318
3787.97647,0.02318
3786.04777,0.02320
3784.11906,0.02320
3782.19036,0.02319
3780.26166,0.02317
3778.33295,0.02311
3776.40425,0.02301
3774.47554,0.02295
3772.54684,0.02300
3770.61813,0.02308
3768.68943,0.02307
3766.76072,0.02299
3764.83202,0.02291
3762.90331,0.02288
3760.97461,0.02290
3759.04590,0.02291
3757.11720,0.02288
3755.18849,0.02296
3753.25979,0.02321
3751.33108,0.02340
3749.40238,0.02334
3747.47367,0.02327
3745.54497,0.02334
3743.61626,0.02321
3741.68756,0.02284
3739.75885,0.02270
3737.83015,0.02282
3735.90144,0.02291
3733.97274,0.02284
3732.04403,0.02267
3730.11533,0.02251
3728.18662,0.02243
3726.25792,0.02240
3724.32921,0.02235
3722.40051,0.02227
3720.47180,0.02216
3718.54310,0.02205
3716.61439,0.02198
3714.68569,0.02203
3712.75698,0.02214
3710.82828,0.02212
3708.89957,0.02194
3706.97087,0.02177
3705.04216,0.02171
3703.11346,0.02172
3701.18475,0.02169
3699.25605,0.02159
3697.32734,0.02148
3695.39864,0.02144
3693.46993,0.02147
3691.54123,0.02160
3689.61252,0.02171
3687.68382,0.02162
3685.75511,0.02136
3683.82641,0.02115
3681.89770,0.02108
3679.96900,0.02113
3678.04029,0.02133
3676.11159,0.02152
3674.18288,0.02146
3672.25418,0.02135
3670.32547,0.02128
3668.39677,0.02107
3666.46806,0.02081
3664.53936,0.02069
3662.61065,0.02065
3660.68195,0.02060
3658.75324,0.02059
3656.82454,0.02058
3654.89583,0.02051
3652.96713,0.02050
3651.03842,0.02066
3649.10972,0.02075
3647.18102,0.02056
3645.25231,0.02028
3643.32361,0.02011
3641.39490,0.02003
3639.46620,0.01999
3637.53749,0.02002
3635.60879,0.02008
3633.68008,0.02014
3631.75138,0.02027
3629.82267,0.02043
3627.89397,0.02040
3625.96526,0.02017
3624.03656,0.02002
3622.10785,0.02005
3620.17915,0.02013
3618.25044,0.02010
3616.32174,0.02001
3614.39303,0.01997
3612.46433,0.01997
3610.53562,0.01996
3608.60692,0.01991
3606.67821,0.01978
3604.74951,0.01966
3602.82080,0.01959
3600.89210,0.01955
3598.96339,0.01951
3597.03469,0.01948
3595.10598,0.01942
3593.17728,0.01934
3591.24857,0.01929
3589.31987,0.01930
3587.39116,0.01927
3585.46246,0.01914
3583.53375,0.01899
3581.60505,0.01890
3579.67634,0.01883
3577.74764,0.01877
3575.81893,0.01872
3573.89023,0.01869
3571.96152,0.01869
3570.03282,0.01874
3568.10411,0.01880
3566.17541,0.01875
3564.24670,0.01863
3562.31800,0.01852
3560.38929,0.01844
3558.46059,0.01837
3556.53188,0.01832
3554.60318,0.01830
3552.67447,0.01829
3550.74577,0.01825
3548.81706,0.01819
3546.88836,0.01813
3544.95965,0.01807
3543.03095,0.01800
3541.10224,0.01794
3539.17354,0.01791
3537.24483,0.01794
3535.31613,0.01798
3533.38742,0.01802
3531.45872,0.01808
3529.53001,0.01816
3527.60131,0.01829
3525.67260,0.01843
3523.74390,0.01858
3521.81519,0.01875
3519.88649,0.01894
3517.95779,0.01915
3516.02908,0.01940
3514.10038,0.01967
3512.17167,0.01998
3510.24297,0.02030
3508.31426,0.02063
3506.38556,0.02098
3504.45685,0.02138
3502.52815,0.02181
3500.59944,0.02225
3498.67074,0.02274
3496.74203,0.02332
3494.81333,0.02397
3492.88462,0.02470
3490.95592,0.02556
3489.02721,0.02660
3487.09851,0.02782
3485.16980,0.02927
3483.24110,0.03108
3481.31239,0.03350
3479.38369,0.03691
3477.45498,0.04189
3475.52628,0.04904
3473.59757,0.05851
3471.66887,0.06897
3469.74016,0.07732
3467.81146,0.08052
3465.88275,0.07808
3463.95405,0.07211
3462.02534,0.06524
3460.09664,0.05906
3458.16793,0.05399
3456.23923,0.04992
3454.31052,0.04671
3452.38182,0.04423
3450.45311,0.04235
3448.52441,0.04094
3446.59570,0.03993
3444.66700,0.03923
3442.73829,0.03878
3440.80959,0.03859
3438.88088,0.03871
3436.95218,0.03914
3435.02347,0.03983
3433.09477,0.04080
3431.16606,0.04218
3429.23736,0.04420
3427.30865,0.04715
3425.37995,0.05128
3423.45124,0.05658
3421.52254,0.06241
3419.59383,0.06752
3417.66513,0.07075
3415.73642,0.07171
3413.80772,0.07083
3411.87901,0.06871
3409.95031,0.06589
3408.02160,0.06281
3406.09290,0.05980
3404.16419,0.05712
3402.23549,0.05491
3400.30678,0.05321
3398.37808,0.05197
3396.44937,0.05111
3394.52067,0.05056
3392.59196,0.05033
3390.66326,0.05034
3388.73456,0.05054
3386.80585,0.05090
3384.87715,0.05140
3382.94844,0.05205
3381.01974,0.05284
3379.09103,0.05374
3377.16233,0.05477
3375.23362,0.05597
3373.30492,0.05731
3371.37621,0.05878
3369.44751,0.06037
3367.51880,0.06208
3365.59010,0.06388
3363.66139,0.06578
3361.73269,0.06778
3359.80398,0.06987
3357.87528,0.07205
3355.94657,0.07432
3354.01787,0.07669
3352.08916,0.07912
3350.16046,0.08159
3348.23175,0.08407
3346.30305,0.08650
3344.37434,0.08886
3342.44564,0.09113
3340.51693,0.09327
3338.58823,0.09527
3336.65952,0.09710
3334.73082,0.09872
3332.80211,0.10009
3330.87341,0.10124
3328.94470,0.10216
3327.01600,0.10281
3325.08729,0.10321
3323.15859,0.10339
3321.22988,0.10339
3319.30118,0.10319
3317.37247,0.10280
3315.44377,0.10225
3313.51506,0.10155
3311.58636,0.10076
3309.65765,0.09989
3307.72895,0.09898
3305.80024,0.09805
3303.87154,0.09713
3301.94283,0.09622
3300.01413,0.09530
3298.08542,0.09439
3296.15672,0.09353
3294.22801,0.09272
3292.29931,0.09194
3290.37060,0.09116
3288.44190,0.09040
3286.51319,0.08968
3284.58449,0.08898
3282.65578,0.08831
3280.72708,0.08769
3278.79837,0.08712
3276.86967,0.08658
3274.94096,0.08607
3273.01226,0.08560
3271.08355,0.08517
3269.15485,0.08481
3267.22614,0.08452
3265.29744,0.08424
3263.36873,0.08398
3261.44003,0.08377
3259.51132,0.08362
3257.58262,0.08353
3255.65392,0.08350
3253.72521,0.08351
3251.79651,0.08358
3249.86780,0.08372
3247.93910,0.08393
3246.01039,0.08420
3244.08169,0.08456
3242.15298,0.08499
3240.22428,0.08547
3238.29557,0.08601
3236.36687,0.08662
3234.43816,0.08731
3232.50946,0.08810
3230.58075,0.08898
3228.65205,0.08994
3226.72334,0.09097
3224.79464,0.09205
3222.86593,0.09316
3220.93723,0.09432
3219.00852,0.09555
3217.07982,0.09683
3215.15111,0.09812
3213.22241,0.09940
3211.29370,0.10069
3209.36500,0.10202
3207.43629,0.10337
3205.50759,0.10469
3203.57888,0.10600
3201.65018,0.10729
3199.72147,0.10854
3197.79277,0.10974
3195.86406,0.11086
3193.93536,0.11190
3192.00665,0.11287
3190.07795,0.11379
3188.14924,0.11467
3186.22054,0.11547
3184.29183,0.11618
3182.36313,0.11683
3180.43442,0.11743
3178.50572,0.11800
3176.57701,0.11857
3174.64831,0.11919
3172.71960,0.11983
3170.79090,0.12050
3168.86219,0.12126
3166.93349,0.12211
3165.00478,0.12310
3163.07608,0.12421
3161.14737,0.12545
3159.21867,0.12681
3157.28996,0.12831
3155.36126,0.12992
3153.43255,0.13161
3151.50385,0.13341
3149.57514,0.13528
3147.64644,0.13719
3145.71773,0.13913
3143.78903,0.14111
3141.86032,0.14308
3139.93162,0.14498
3138.00291,0.14678
3136.07421,0.14845
3134.14550,0.15000
3132.21680,0.15135
3130.28809,0.15246
3128.35939,0.15333
3126.43069,0.15400
3124.50198,0.15442
3122.57328,0.15458
3120.64457,0.15452
3118.71587,0.15429
3116.78716,0.15392
3114.85846,0.15340
3112.92975,0.15276
3111.00105,0.15200
3109.07234,0.15115
3107.14364,0.15026
3105.21493,0.14936
3103.28623,0.14843
3101.35752,0.14749
3099.42882,0.14654
3097.50011,0.14559
3095.57141,0.14465
3093.64270,0.14372
3091.71400,0.14278
3089.78529,0.14180
3087.85659,0.14080
3085.92788,0.13977
3083.99918,0.13872
3082.07047,0.13766
3080.14177,0.13658
3078.21306,0.13553
3076.28436,0.13450
3074.35565,0.13346
3072.42695,0.13241
3070.49824,0.13135
3068.56954,0.13031
3066.64083,0.12929
3064.71213,0.12826
3062.78342,0.12721
3060.85472,0.12618
3058.92601,0.12520
3056.99731,0.12422
3055.06860,0.12323
3053.13990,0.12225
3051.21119,0.12127
3049.28249,0.12029
3047.35378,0.11932
3045.42508,0.11835
3043.49637,0.11741
3041.56767,0.11649
3039.63896,0.11559
3037.71026,0.11471
3035.78155,0.11383
3033.85285,0.11295
3031.92414,0.11208
3029.99544,0.11121
3028.06673,0.11032
3026.13803,0.10944
3024.20932,0.10858
3022.28062,0.10774
3020.35191,0.10690
3018.42321,0.10607
3016.49450,0.10526
3014.56580,0.10449
3012.63709,0.10371
3010.70839,0.10292
3008.77968,0.10213
3006.85098,0.10138
3004.92227,0.10065
3002.99357,0.09995
3001.06486,0.09925
2999.13616,0.09855
2997.20746,0.09786
2995.27875,0.09721
2993.35005,0.09660
2991.42134,0.09604
2989.49264,0.09551
2987.56393,0.09501
2985.63523,0.09453
2983.70652,0.09411
2981.77782,0.09370
2979.84911,0.09328
2977.92041,0.09283
2975.99170,0.09239
2974.06300,0.09194
2972.13429,0.09150
2970.20559,0.09105
2968.27688,0.09058
2966.34818,0.09008
2964.41947,0.08955
2962.49077,0.08901
2960.56206,0.08845
2958.63336,0.08787
2956.70465,0.08731
2954.77595,0.08674
2952.84724,0.08616
2950.91854,0.08557
2948.98983,0.08497
2947.06113,0.08437
2945.13242,0.08377
2943.20372,0.08315
2941.27501,0.08255
2939.34631,0.08198
2937.41760,0.08145
2935.48890,0.08089
2933.56019,0.08032
2931.63149,0.07974
2929.70278,0.07915
2927.77408,0.07857
2925.84537,0.07799
2923.91667,0.07739
2921.98796,0.07678
2920.05926,0.07616
2918.13055,0.07554
2916.20185,0.07494
2914.27314,0.07437
2912.34444,0.07383
2910.41573,0.07331
2908.48703,0.07278
2906.55832,0.07225
2904.62962,0.07175
2902.70091,0.07127
2900.77221,0.07083
2898.84350,0.07040
2896.91480,0.06999
2894.98609,0.06959
2893.05739,0.06923
2891.12868,0.06891
2889.19998,0.06862
2887.27127,0.06834
2885.34257,0.06808
2883.41386,0.06783
2881.48516,0.06762
2879.55645,0.06746
2877.62775,0.06733
2875.69904,0.06722
2873.77034,0.06713
2871.84163,0.06705
2869.91293,0.06700
2867.98422,0.06694
2866.05552,0.06689
2864.12682,0.06685
2862.19811,0.06682
2860.26941,0.06681
2858.34070,0.06680
2856.41200,0.06676
2854.48329,0.06670
2852.55459,0.06664
2850.62588,0.06661
2848.69718,0.06661
2846.76847,0.06662
2844.83977,0.06663
2842.91106,0.06663
2840.98236,0.06663
2839.05365,0.06664
2837.12495,0.06664
2835.19624,0.06661
2833.26754,0.06655
2831.33883,0.06651
2829.41013,0.06647
2827.48142,0.06640
2825.55272,0.06627
2823.62401,0.06610
2821.69531,0.06593
2819.76660,0.06577
2817.83790,0.06558
2815.90919,0.06534
2813.98049,0.06508
2812.05178,0.06480
2810.12308,0.06449
2808.19437,0.06416
2806.26567,0.06381
2804.33696,0.06345
2802.40826,0.06307
2800.47955,0.06266
2798.55085,0.06224
2796.62214,0.06185
2794.69344,0.06148
2792.76473,0.06110
2790.83603,0.06072
2788.90732,0.06034
2786.97862,0.05999
2785.04991,0.05966
2783.12121,0.05935
2781.19250,0.05906
2779.26380,0.05878
2777.33509,0.05853
2775.40639,0.05829
2773.47768,0.05806
2771.54898,0.05782
2769.62027,0.05759
2767.69157,0.05737
2765.76286,0.05716
2763.83416,0.05693
2761.90545,0.05670
2759.97675,0.05648
2758.04804,0.05629
2756.11934,0.05612
2754.19063,0.05595
2752.26193,0.05582
2750.33322,0.05568
2748.40452,0.05553
2746.47581,0.05537
2744.54711,0.05519
2742.61840,0.05497
2740.68970,0.05472
2738.76099,0.05446
2736.83229,0.05420
2734.90359,0.05393
2732.97488,0.05364
2731.04618,0.05336
2729.11747,0.05309
2727.18877,0.05286
2725.26006,0.05268
2723.33136,0.05254
2721.40265,0.05243
2719.47395,0.05235
2717.54524,0.05230
2715.61654,0.05229
2713.68783,0.05229
2711.75913,0.05227
2709.83042,0.05226
2707.90172,0.05228
2705.97301,0.05229
2704.04431,0.05228
2702.11560,0.05227
2700.18690,0.05227
2698.25819,0.05228
2696.32949,0.05231
2694.40078,0.05233
2692.47208,0.05233
2690.54337,0.05234
2688.61467,0.05235
2686.68596,0.05234
2684.75726,0.05229
2682.82855,0.05222
2680.89985,0.05211
2678.97114,0.05197
2677.04244,0.05180
2675.11373,0.05161
2673.18503,0.05142
2671.25632,0.05120
2669.32762,0.05096
2667.39891,0.05073
2665.47021,0.05053
2663.54150,0.05037
2661.61280,0.05023
2659.68409,0.05010
2657.75539,0.04998
2655.82668,0.04984
2653.89798,0.04970
2651.96927,0.04956
2650.04057,0.04943
2648.11186,0.04929
2646.18316,0.04916
2644.25445,0.04903
2642.32575,0.04890
2640.39704,0.04876
2638.46834,0.04860
2636.53963,0.04847
2634.61093,0.04836
2632.68222,0.04825
2630.75352,0.04812
2628.82481,0.04800
2626.89611,0.04788
2624.96740,0.04777
2623.03870,0.04768
2621.10999,0.04761
2619.18129,0.04752
2617.25258,0.04741
2615.32388,0.04728
2613.39517,0.04715
2611.46647,0.04703
2609.53776,0.04694
2607.60906,0.04686
2605.68036,0.04679
2603.75165,0.04670
2601.82295,0.04656
2599.89424,0.04642
2597.96554,0.04629
2596.03683,0.04618
2594.10813,0.04610
2592.17942,0.04602
2590.25072,0.04592
2588.32201,0.04583
2586.39331,0.04580
2584.46460,0.04580
2582.53590,0.04579
2580.60719,0.04576
2578.67849,0.04570
2576.74978,0.04562
2574.82108,0.04555
2572.89237,0.04550
2570.96367,0.04546
2569.03496,0.04543
2567.10626,0.04542
2565.17755,0.04537
2563.24885,0.04525
2561.32014,0.04514
2559.39144,0.04506
2557.46273,0.04496
2555.53403,0.04487
2553.60532,0.04482
2551.67662,0.04475
2549.74791,0.04461
2547.81921,0.04443
2545.89050,0.04431
2543.96180,0.04422
2542.03309,0.04410
2540.10439,0.04396
2538.17568,0.04383
2536.24698,0.04370
2534.31827,0.04357
2532.38957,0.04346
2530.46086,0.04334
2528.53216,0.04322
2526.60345,0.04312
2524.67475,0.04302
2522.74604,0.04293
2520.81734,0.04286
2518.88863,0.04282
2516.95993,0.04277
2515.03122,0.04271
2513.10252,0.04264
2511.17381,0.04257
2509.24511,0.04252
2507.31640,0.04248
2505.38770,0.04243
2503.45899,0.04236
2501.53029,0.04230
2499.60158,0.04222
2497.67288,0.04210
2495.74417,0.04198
2493.81547,0.04187
2491.88676,0.04176
2489.95806,0.04165
2488.02935,0.04153
2486.10065,0.04143
2484.17194,0.04134
2482.24324,0.04125
2480.31453,0.04115
2478.38583,0.04105
2476.45713,0.04094
2474.52842,0.04080
2472.59972,0.04063
2470.67101,0.04047
2468.74231,0.04032
2466.81360,0.04018
2464.88490,0.04005
2462.95619,0.03993
2461.02749,0.03982
2459.09878,0.03971
2457.17008,0.03958
2455.24137,0.03946
2453.31267,0.03937
2451.38396,0.03925
2449.45526,0.03907
2447.52655,0.03884
2445.59785,0.03861
2443.66914,0.03844
2441.74044,0.03832
2439.81173,0.03820
2437.88303,0.03805
2435.95432,0.03791
2434.02562,0.03778
2432.09691,0.03765
2430.16821,0.03749
2428.23950,0.03732
2426.31080,0.03719
2424.38209,0.03709
2422.45339,0.03696
2420.52468,0.03680
2418.59598,0.03666
2416.66727,0.03652
2414.73857,0.03638
2412.80986,0.03625
2410.88116,0.03616
2408.95245,0.03601
2407.02375,0.03578
2405.09504,0.03556
2403.16634,0.03541
2401.23763,0.03531
2399.30893,0.03520
2397.38022,0.03508
2395.45152,0.03496
2393.52281,0.03487
2391.59411,0.03478
2389.66540,0.03469
2387.73670,0.03461
2385.80799,0.03455
2383.87929,0.03455
2381.95058,0.03467
2380.02188,0.03490
2378.09317,0.03529
2376.16447,0.03584
2374.23576,0.03655
2372.30706,0.03738
2370.37835,0.03823
2368.44965,0.03902
2366.52094,0.03970
2364.59224,0.04026
2362.66353,0.04064
2360.73483,0.04071
2358.80612,0.04038
2356.87742,0.03967
2354.94871,0.03862
2353.02001,0.03735
2351.09130,0.03617
2349.16260,0.03563
2347.23389,0.03601
2345.30519,0.03693
2343.37649,0.03785
2341.44778,0.03851
2339.51908,0.03890
2337.59037,0.03906
2335.66167,0.03903
2333.73296,0.03888
2331.80426,0.03862
2329.87555,0.03833
2327.94685,0.03823
2326.01814,0.03854
2324.08944,0.03887
2322.16073,0.03863
2320.23203,0.03795
2318.30332,0.03730
2316.37462,0.03677
2314.44591,0.03633
2312.51721,0.03597
2310.58850,0.03569
2308.65980,0.03547
2306.73109,0.03529
2304.80239,0.03516
2302.87368,0.03510
2300.94498,0.03506
2299.01627,0.03502
2297.08757,0.03504
2295.15886,0.03515
2293.23016,0.03535
2291.30145,0.03556
2289.37275,0.03578
2287.44404,0.03600
2285.51534,0.03616
2283.58663,0.03619
2281.65793,0.03617
2279.72922,0.03618
2277.80052,0.03625
2275.87181,0.03636
2273.94311,0.03647
2272.01440,0.03656
2270.08570,0.03667
2268.15699,0.03681
2266.22829,0.03694
2264.29958,0.03703
2262.37088,0.03718
2260.44217,0.03740
2258.51347,0.03766
2256.58476,0.03781
2254.65606,0.03782
2252.72735,0.03781
2250.79865,0.03792
2248.86994,0.03809
2246.94124,0.03830
2245.01253,0.03850
2243.08383,0.03873
2241.15512,0.03902
2239.22642,0.03933
2237.29771,0.03958
2235.36901,0.03978
2233.44030,0.04001
2231.51160,0.04024
2229.58289,0.04045
2227.65419,0.04066
2225.72548,0.04087
2223.79678,0.04105
2221.86807,0.04123
2219.93937,0.04142
2218.01066,0.04161
2216.08196,0.04179
2214.15326,0.04199
2212.22455,0.04217
2210.29585,0.04234
2208.36714,0.04253
2206.43844,0.04274
2204.50973,0.04293
2202.58103,0.04318
2200.65232,0.04345
2198.72362,0.04369
2196.79491,0.04382
2194.86621,0.04393
2192.93750,0.04415
2191.00880,0.04439
2189.08009,0.04453
2187.15139,0.04465
2185.22268,0.04475
2183.29398,0.04461
2181.36527,0.04415
2179.43657,0.04378
2177.50786,0.04360
2175.57916,0.04337
2173.65045,0.04317
2171.72175,0.04328
2169.79304,0.04369
2167.86434,0.04419
2165.93563,0.04461
2164.00693,0.04510
2162.07822,0.04551
2160.14952,0.04454
2158.22081,0.04176
2156.29211,0.03939
2154.36340,0.03868
2152.43470,0.03866
2150.50599,0.03858
2148.57729,0.03828
2146.64858,0.03772
2144.71988,0.03708
2142.79117,0.03657
2140.86247,0.03614
2138.93376,0.03568
2137.00506,0.03502
2135.07635,0.03405
2133.14765,0.03312
2131.21894,0.03266
2129.29024,0.03254
2127.36153,0.03247
2125.43283,0.03236
2123.50412,0.03223
2121.57542,0.03211
2119.64671,0.03208
2117.71801,0.03214
2115.78930,0.03222
2113.86060,0.03224
2111.93189,0.03213
2110.00319,0.03190
2108.07448,0.03165
2106.14578,0.03144
2104.21707,0.03124
2102.28837,0.03105
2100.35966,0.03084
2098.43096,0.03055
2096.50225,0.03010
2094.57355,0.02960
2092.64484,0.02934
2090.71614,0.02936
2088.78743,0.02944
2086.85873,0.02946
2084.93003,0.02951
2083.00132,0.02960
2081.07262,0.02970
2079.14391,0.02979
2077.21521,0.02984
2075.28650,0.02981
2073.35780,0.02983
2071.42909,0.02993
2069.50039,0.02996
2067.57168,0.02987
2065.64298,0.02981
2063.71427,0.02984
2061.78557,0.02988
2059.85686,0.02990
2057.92816,0.02998
2055.99945,0.03009
2054.07075,0.03034
2052.14204,0.03101
2050.21334,0.03172
2048.28463,0.03177
2046.35593,0.03144
2044.42722,0.03127
2042.49852,0.03126
2040.56981,0.03136
2038.64111,0.03162
2036.71240,0.03189
2034.78370,0.03191
2032.85499,0.03169
2030.92629,0.03139
2028.99758,0.03103
2027.06888,0.03069
2025.14017,0.03043
2023.21147,0.03022
2021.28276,0.03003
2019.35406,0.02986
2017.42535,0.02964
2015.49665,0.02941
2013.56794,0.02927
2011.63924,0.02916
2009.71053,0.02883
2007.78183,0.02810
2005.85312,0.02723
2003.92442,0.02671
2001.99571,0.02656
2000.06701,0.02652
1998.13830,0.02648
1996.20960,0.02641
1994.28089,0.02626
1992.35219,0.02610
1990.42348,0.02602
1988.49478,0.02605
1986.56607,0.02616
1984.63737,0.02634
1982.70866,0.02675
1980.77996,0.02736
1978.85125,0.02739
1976.92255,0.02640
1974.99384,0.02520
1973.06514,0.02446
1971.13643,0.02406
1969.20773,0.02377
1967.27902,0.02344
1965.35032,0.02306
1963.42161,0.02269
1961.49291,0.02221
1959.56420,0.02161
1957.63550,0.02116
1955.70679,0.02094
1953.77809,0.02077
1951.84939,0.02057
1949.92068,0.02031
1947.99198,0.02000
1946.06327,0.01968
1944.13457,0.01940
1942.20586,0.01911
1940.27716,0.01879
1938.34845,0.01851
1936.41975,0.01828
1934.49104,0.01804
1932.56234,0.01777
1930.63363,0.01752
1928.70493,0.01730
1926.77622,0.01708
1924.84752,0.01688
1922.91881,0.01672
1920.99011,0.01660
1919.06140,0.01650
1917.13270,0.01636
1915.20399,0.01615
1913.27529,0.01596
1911.34658,0.01580
1909.41788,0.01561
1907.48917,0.01542
1905.56047,0.01525
1903.63176,0.01512
1901.70306,0.01497
1899.77435,0.01480
1897.84565,0.01463
1895.91694,0.01447
1893.98824,0.01431
1892.05953,0.01418
1890.13083,0.01408
1888.20212,0.01396
1886.27342,0.01381
1884.34471,0.01366
1882.41601,0.01352
1880.48730,0.01338
1878.55860,0.01324
1876.62989,0.01311
1874.70119,0.01301
1872.77248,0.01292
1870.84378,0.01285
1868.91507,0.01278
1866.98637,0.01266
1865.05766,0.01251
1863.12896,0.01238
1861.20025,0.01225
1859.27155,0.01212
1857.34284,0.01198
1855.41414,0.01188
1853.48543,0.01177
1851.55673,0.01164
1849.62802,0.01154
1847.69932,0.01149
1845.77061,0.01149
1843.84191,0.01140
1841.91320,0.01118
1839.98450,0.01097
1838.05579,0.01083
1836.12709,0.01074
1834.19838,0.01066
1832.26968,0.01063
1830.34097,0.01060
1828.41227,0.01053
1826.48356,0.01044
1824.55486,0.01035
1822.62616,0.01019
1820.69745,0.00997
1818.76875,0.00966
1816.84004,0.00937
1814.91134,0.00925
1812.98263,0.00929
1811.05393,0.00933
1809.12522,0.00931
1807.19652,0.00925
1805.26781,0.00922
1803.33911,0.00925
1801.41040,0.00928
1799.48170,0.00927
1797.55299,0.00924
1795.62429,0.00927
1793.69558,0.00938
1791.76688,0.00944
1789.83817,0.00940
1787.90947,0.00939
1785.98076,0.00947
1784.05206,0.00956
1782.12335,0.00963
1780.19465,0.00968
1778.26594,0.00971
1776.33724,0.00982
1774.40853,0.01009
1772.47983,0.01035
1770.55112,0.01042
1768.62242,0.01037
1766.69371,0.01031
1764.76501,0.01030
1762.83630,0.01034
1760.90760,0.01033
1758.97889,0.01026
1757.05019,0.01020
1755.12148,0.01018
1753.19278,0.01026
1751.26407,0.01037
1749.33537,0.01037
1747.40666,0.01031
1745.47796,0.01029
1743.54925,0.01037
1741.62055,0.01052
1739.69184,0.01068
1737.76314,0.01089
1735.83443,0.01129
1733.90573,0.01166
1731.97702,0.01175
1730.04832,0.01179
1728.11961,0.01202
1726.19091,0.01240
1724.26220,0.01288
1722.33350,0.01346
1720.40479,0.01424
1718.47609,0.01514
1716.54738,0.01587
1714.61868,0.01637
1712.68997,0.01690
1710.76127,0.01764
1708.83256,0.01856
1706.90386,0.01962
1704.97515,0.02076
1703.04645,0.02208
1701.11774,0.02356
1699.18904,0.02491
1697.26033,0.02615
1695.33163,0.02743
1693.40293,0.02874
1691.47422,0.03036
1689.54552,0.03251
1687.61681,0.03525
1685.68811,0.03860
1683.75940,0.04221
1681.83070,0.04593
1679.90199,0.05009
1677.97329,0.05477
1676.04458,0.05970
1674.11588,0.06476
1672.18717,0.07025
1670.25847,0.07660
1668.32976,0.08379
1666.40106,0.09162
1664.47235,0.09997
1662.54365,0.10843
1660.61494,0.11652
1658.68624,0.12422
1656.75753,0.13188
1654.82883,0.13971
1652.90012,0.14703
1650.97142,0.15285
1649.04271,0.15726
1647.11401,0.16057
1645.18530,0.16261
1643.25660,0.16378
1641.32789,0.16497
1639.39919,0.16677
1637.47048,0.16941
1635.54178,0.17266
1633.61307,0.17610
1631.68437,0.17964
1629.75566,0.18325
1627.82696,0.18662
1625.89825,0.18938
1623.96955,0.19120
1622.04084,0.19171
1620.11214,0.19081
1618.18343,0.18854
1616.25473,0.18475
1614.32602,0.17967
1612.39732,0.17404
1610.46861,0.16841
1608.53991,0.16313
1606.61120,0.15853
1604.68250,0.15492
1602.75379,0.15252
1600.82509,0.15149
1598.89638,0.15200
1596.96768,0.15412
1595.03897,0.15778
1593.11027,0.16272
1591.18156,0.16853
1589.25286,0.17476
1587.32415,0.18096
1585.39545,0.18685
1583.46674,0.19222
1581.53804,0.19700
1579.60933,0.20121
1577.68063,0.20483
1575.75192,0.20768
1573.82322,0.20975
1571.89451,0.21162
1569.96581,0.21363
1568.03710,0.21577
1566.10840,0.21827
1564.17970,0.22156
1562.25099,0.22594
1560.32229,0.23143
1558.39358,0.23743
1556.46488,0.24350
1554.53617,0.24984
1552.60747,0.25646
1550.67876,0.26293
1548.75006,0.26893
1546.82135,0.27423
1544.89265,0.27876
1542.96394,0.28259
1541.03524,0.28578
1539.10653,0.28823
1537.17783,0.29004
1535.24912,0.29168
1533.32042,0.29324
1531.39171,0.29445
1529.46301,0.29519
1527.53430,0.29523
1525.60560,0.29416
1523.67689,0.29174
1521.74819,0.28780
1519.81948,0.28225
1517.89078,0.27543
1515.96207,0.26784
1514.03337,0.25989
1512.10466,0.25193
1510.17596,0.24423
1508.24725,0.23677
1506.31855,0.22919
1504.38984,0.22142
1502.46114,0.21397
1500.53243,0.20710
1498.60373,0.20062
1496.67502,0.19422
1494.74632,0.18788
1492.81761,0.18187
1490.88891,0.17635
1488.96020,0.17139
1487.03150,0.16729
1485.10279,0.16459
1483.17409,0.16386
1481.24538,0.16559
1479.31668,0.17007
1477.38797,0.17728
1475.45927,0.18672
1473.53056,0.19745
1471.60186,0.20820
1469.67315,0.21764
1467.74445,0.22480
1465.81574,0.22907
1463.88704,0.23049
1461.95833,0.23002
1460.02963,0.22905
1458.10092,0.22842
1456.17222,0.22836
1454.24351,0.22925
1452.31481,0.23175
1450.38610,0.23628
1448.45740,0.24283
1446.52869,0.25116
1444.59999,0.26102
1442.67128,0.27212
1440.74258,0.28403
1438.81387,0.29611
1436.88517,0.30735
1434.95646,0.31635
1433.02776,0.32220
1431.09906,0.32484
1429.17035,0.32466
1427.24165,0.32248
1425.31294,0.31913
1423.38424,0.31522
1421.45553,0.31121
1419.52683,0.30723
1417.59812,0.30321
1415.66942,0.29920
1413.74071,0.29524
1411.81201,0.29116
1409.88330,0.28688
1407.95460,0.28252
1406.02589,0.27823
1404.09719,0.27406
1402.16848,0.27003
1400.23978,0.26613
1398.31107,0.26229
1396.38237,0.25847
1394.45366,0.25465
1392.52496,0.25082
1390.59625,0.24708
1388.66755,0.24352
1386.73884,0.24010
1384.81014,0.23682
1382.88143,0.23382
1380.95273,0.23121
1379.02402,0.22902
1377.09532,0.22736
1375.16661,0.22633
1373.23791,0.22606
1371.30920,0.22675
1369.38050,0.22855
1367.45179,0.23136
1365.52309,0.23469
1363.59438,0.23775
1361.66568,0.23983
1359.73697,0.24074
1357.80827,0.24086
1355.87956,0.24068
1353.95086,0.24045
1352.02215,0.24024
1350.09345,0.24007
1348.16474,0.23992
1346.23604,0.23973
1344.30733,0.23945
1342.37863,0.23910
1340.44992,0.23869
1338.52122,0.23824
1336.59251,0.23775
1334.66381,0.23732
1332.73510,0.23707
1330.80640,0.23699
1328.87769,0.23706
1326.94899,0.23720
1325.02028,0.23731
1323.09158,0.23730
1321.16287,0.23705
1319.23417,0.23648
1317.30546,0.23563
1315.37676,0.23460
1313.44805,0.23352
1311.51935,0.23249
1309.59064,0.23158
1307.66194,0.23066
1305.73323,0.22947
1303.80453,0.22781
1301.87583,0.22563
1299.94712,0.22306
1298.01842,0.22024
1296.08971,0.21736
1294.16101,0.21452
1292.23230,0.21180
1290.30360,0.20926
1288.37489,0.20699
1286.44619,0.20503
1284.51748,0.20336
1282.58878,0.20195
1280.66007,0.20071
1278.73137,0.19957
1276.80266,0.19852
1274.87396,0.19760
1272.94525,0.19685
1271.01655,0.19631
1269.08784,0.19596
1267.15914,0.19574
1265.23043,0.19555
1263.30173,0.19530
1261.37302,0.19494
1259.44432,0.19441
1257.51561,0.19370
1255.58691,0.19283
1253.65820,0.19187
1251.72950,0.19082
1249.80079,0.18969
1247.87209,0.18853
1245.94338,0.18735
1244.01468,0.18612
1242.08597,0.18485
1240.15727,0.18356
1238.22856,0.18226
1236.29986,0.18091
1234.37115,0.17954
1232.44245,0.17817
1230.51374,0.17680
1228.58504,0.17544
1226.65633,0.17410
1224.72763,0.17281
1222.79892,0.17155
1220.87022,0.17032
1218.94151,0.16920
1217.01281,0.16827
1215.08410,0.16755
1213.15540,0.16706
1211.22669,0.16684
1209.29799,0.16697
1207.36928,0.16756
1205.44058,0.16863
1203.51187,0.17008
1201.58317,0.17174
1199.65446,0.17336
1197.72576,0.17471
1195.79705,0.17568
1193.86835,0.17635
1191.93964,0.17684
1190.01094,0.17724
1188.08223,0.17753
1186.15353,0.17752
1184.22482,0.17711
1182.29612,0.17642
1180.36741,0.17576
1178.43871,0.17546
1176.51000,0.17552
1174.58130,0.17569
1172.65260,0.17553
1170.72389,0.17469
1168.79519,0.17302
1166.86648,0.17070
1164.93778,0.16802
1163.00907,0.16534
1161.08037,0.16287
1159.15166,0.16073
1157.22296,0.15896
1155.29425,0.15754
1153.36555,0.15638
1151.43684,0.15536
1149.50814,0.15436
1147.57943,0.15335
1145.65073,0.15234
1143.72202,0.15138
1141.79332,0.15048
1139.86461,0.14961
1137.93591,0.14878
1136.00720,0.14797
1134.07850,0.14719
1132.14979,0.14643
1130.22109,0.14573
1128.29238,0.14507
1126.36368,0.14450
1124.43497,0.14404
1122.50627,0.14377
1120.57756,0.14383
1118.64886,0.14429
1116.72015,0.14504
1114.79145,0.14582
1112.86274,0.14650
1110.93404,0.14707
1109.00533,0.14742
1107.07663,0.14733
1105.14792,0.14671
1103.21922,0.14576
1101.29051,0.14472
1099.36181,0.14368
1097.43310,0.14270
1095.50440,0.14181
1093.57569,0.14099
1091.64699,0.14021
1089.71828,0.13949
1087.78958,0.13881
1085.86087,0.13810
1083.93217,0.13735
1082.00346,0.13660
1080.07476,0.13584
1078.14605,0.13508
1076.21735,0.13432
1074.28864,0.13358
1072.35994,0.13287
1070.43123,0.13217
1068.50253,0.13148
1066.57382,0.13081
1064.64512,0.13017
1062.71641,0.12954
1060.78771,0.12892
1058.85900,0.12837
1056.93030,0.12796
1055.00159,0.12769
1053.07289,0.12759
1051.14418,0.12775
1049.21548,0.12839
1047.28677,0.12981
1045.35807,0.13227
1043.42936,0.13608
1041.50066,0.14145
1039.57196,0.14833
1037.64325,0.15618
1035.71455,0.16410
1033.78584,0.17114
1031.85714,0.17678
1029.92843,0.18105
1027.99973,0.18425
1026.07102,0.18658
1024.14232,0.18799
1022.21361,0.18835
1020.28491,0.18763
1018.35620,0.18597
1016.42750,0.18360
1014.49879,0.18076
1012.57009,0.17764
1010.64138,0.17440
1008.71268,0.17113
1006.78397,0.16785
1004.85527,0.16451
1002.92656,0.16118
1000.99786,0.15795
999.06915,0.15487
997.14045,0.15204
995.21174,0.14961
993.28304,0.14765
991.35433,0.14610
989.42563,0.14477
987.49692,0.14350
985.56822,0.14216
983.63951,0.14075
981.71081,0.13929
979.78210,0.13781
977.85340,0.13629
975.92469,0.13474
973.99599,0.13319
972.06728,0.13166
970.13858,0.13021
968.20987,0.12886
966.28117,0.12764
964.35246,0.12655
962.42376,0.12555
960.49505,0.12461
958.56635,0.12373
956.63764,0.12287
954.70894,0.12196
952.78023,0.12100
950.85153,0.12005
948.92282,0.11910
946.99412,0.11815
945.06541,0.11719
943.13671,0.11627
941.20800,0.11540
939.27930,0.11455
937.35059,0.11375
935.42189,0.11301
933.49318,0.11231
931.56448,0.11164
929.63577,0.11102
927.70707,0.11047
925.77836,0.10998
923.84966,0.10955
921.92095,0.10915
919.99225,0.10874
918.06354,0.10834
916.13484,0.10799
914.20613,0.10766
912.27743,0.10734
910.34873,0.10702
908.42002,0.10675
906.49132,0.10652
904.56261,0.10630
902.63391,0.10610
900.70520,0.10594
898.77650,0.10582
896.84779,0.10572
894.91909,0.10570
892.99038,0.10577
891.06168,0.10591
889.13297,0.10603
887.20427,0.10615
885.27556,0.10629
883.34686,0.10646
881.41815,0.10667
879.48945,0.10689
877.56074,0.10703
875.63204,0.10708
873.70333,0.10708
871.77463,0.10708
869.84592,0.10705
867.91722,0.10693
865.98851,0.10670
864.05981,0.10643
862.13110,0.10616
860.20240,0.10586
858.27369,0.10553
856.34499,0.10523
854.41628,0.10499
852.48758,0.10482
850.55887,0.10471
848.63017,0.10466
846.70146,0.10471
844.77276,0.10492
842.84405,0.10534
840.91535,0.10591
838.98664,0.10668
837.05794,0.10779
835.12923,0.10936
833.20053,0.11150
831.27182,0.11439
829.34312,0.11826
827.41441,0.12352
825.48571,0.13079
823.55700,0.14105
821.62830,0.15556
819.69959,0.17535
817.77089,0.20092
815.84218,0.23136
813.91348,0.26325
811.98477,0.29043
810.05607,0.30648
808.12736,0.30814
806.19866,0.29664
804.26995,0.27717
802.34125,0.25655
800.41254,0.23870
798.48384,0.22317
796.55513,0.20917
794.62643,0.19788
792.69772,0.19018
790.76902,0.18539
788.84031,0.18235
786.91161,0.18031
784.98290,0.17897
783.05420,0.17818
781.12550,0.17790
779.19679,0.17814
777.26809,0.17883
775.33938,0.17991
773.41068,0.18119
771.48197,0.18223
769.55327,0.18278
767.62456,0.18297
765.69586,0.18294
763.76715,0.18267
761.83845,0.18197
759.90974,0.18077
757.98104,0.17903
756.05233,0.17685
754.12363,0.17470
752.19492,0.17300
750.26622,0.17127
748.33751,0.16857
746.40881,0.16489
744.48010,0.16138
742.55140,0.15970
740.62269,0.16116
738.69399,0.16570
736.76528,0.17159
734.83658,0.17670
732.90787,0.17996
730.97917,0.18148
729.05046,0.18188
727.12176,0.18175
725.19305,0.18141
723.26435,0.18101
721.33564,0.18065
719.40694,0.18031
717.47823,0.18001
715.54953,0.17979
713.62082,0.17971
711.69212,0.17974
709.76341,0.17983
707.83471,0.17994
705.90600,0.18012
703.97730,0.18034
702.04859,0.18058
700.11989,0.18092
698.19118,0.18140
696.26248,0.18194
694.33377,0.18253
692.40507,0.18320
690.47636,0.18384
688.54766,0.18431
686.61895,0.18462
684.69025,0.18482
682.76154,0.18521
680.83284,0.18657
678.90413,0.18965
676.97543,0.19381
675.04672,0.19706
673.11802,0.19845
671.18931,0.19908
669.26061,0.19995
667.33190,0.20031
665.40320,0.19980
663.47449,0.19963
661.54579,0.20032
659.61708,0.20135
657.68838,0.20248
655.75967,0.20369
653.83097,0.20494
651.90226,0.20627
649.97356,0.20783
648.04486,0.20962
646.11615,0.21145
644.18745,0.21332
642.25874,0.21533
640.33004,0.21744
638.40133,0.21965
636.47263,0.22213
634.54392,0.22495
632.61522,0.22822
630.68651,0.23188
628.75781,0.23551
626.82910,0.23901
624.90040,0.24240
622.97169,0.24554
621.04299,0.24852
619.11428,0.25160
617.18558,0.25480
615.25687,0.25794
613.32817,0.26089
611.39946,0.26334
609.47076,0.26490
607.54205,0.26497
605.61335,0.26299
603.68464,0.25924
601.75594,0.25386
599.82723,0.24650
597.89853,0.23878
595.96982,0.23455
594.04112,0.23684
592.11241,0.24535
590.18371,0.25730
588.25500,0.27101
586.32630,0.28591
584.39759,0.29835
582.46889,0.30317
580.54018,0.30063
578.61148,0.29616
576.68277,0.29277
574.75407,0.28902
572.82536,0.28475
570.89666,0.28204
568.96795,0.28023
567.03925,0.27793
565.11054,0.27584
563.18184,0.27286
561.25313,0.26795
559.32443,0.26306
557.39572,0.25954
555.46702,0.25784
553.53831,0.25737
551.60961,0.25616
549.68090,0.25340
547.75220,0.24951
545.82349,0.24545
543.89479,0.24201
541.96608,0.23871
540.03738,0.23568
538.10867,0.23451
536.17997,0.23552
534.25126,0.23689
532.32256,0.23716
530.39385,0.23893
528.46515,0.24142
526.53644,0.23129
524.60774,0.21010
522.67903,0.20029
520.75033,0.20207
518.82163,0.20949
516.89292,0.23040
514.96422,0.22545
