4497.73989,0.02183
4495.81118,0.02181
4493.88248,0.02181
4491.95377,0.02183
4490.02507,0.02187
4488.09636,0.02190
4486.16766,0.02191
4484.23895,0.02186
4482.31025,0.02180
4480.38154,0.02176
4478.45284,0.02177
4476.52413,0.02178
4474.59543,0.02178
4472.66672,0.02177
4470.73802,0.02175
4468.80931,0.02172
4466.88061,0.02169
4464.95190,0.02167
4463.02320,0.02165
4461.09449,0.02164
4459.16579,0.02164
4457.23708,0.02163
4455.30838,0.02163
4453.37967,0.02160
4451.45097,0.02156
4449.52226,0.02154
4447.59356,0.02154
4445.66485,0.02155
4443.73615,0.02155
4441.80744,0.02153
4439.87874,0.02152
4437.95003,0.02151
4436.02133,0.02150
4434.09262,0.02147
4432.16392,0.02144
4430.23522,0.02140
4428.30651,0.02137
4426.37781,0.02136
4424.44910,0.02135
4422.52040,0.02136
4420.59169,0.02137
4418.66299,0.02137
4416.73428,0.02137
4414.80558,0.02137
4412.87687,0.02135
4410.94817,0.02131
4409.01946,0.02126
4407.09076,0.02125
4405.16205,0.02125
4403.23335,0.02124
4401.30464,0.02123
4399.37594,0.02120
4397.44723,0.02117
4395.51853,0.02116
4393.58982,0.02117
4391.66112,0.02117
4389.73241,0.02116
4387.80371,0.02116
4385.87500,0.02116
4383.94630,0.02115
4382.01759,0.02113
4380.08889,0.02113
4378.16018,0.02114
4376.23148,0.02110
4374.30277,0.02104
4372.37407,0.02101
4370.44536,0.02103
4368.51666,0.02103
4366.58795,0.02103
4364.65925,0.02104
4362.73054,0.02105
4360.80184,0.02104
4358.87313,0.02102
4356.94443,0.02097
4355.01572,0.02092
4353.08702,0.02092
4351.15831,0.02093
4349.22961,0.02093
4347.30090,0.02095
4345.37220,0.02097
4343.44349,0.02096
4341.51479,0.02093
4339.58608,0.02090
4337.65738,0.02088
4335.72867,0.02088
4333.79997,0.02088
4331.87126,0.02087
4329.94256,0.02088
4328.01385,0.02090
4326.08515,0.02088
4324.15644,0.02080
4322.22774,0.02071
4320.29903,0.02068
4318.37033,0.02070
4316.44162,0.02071
4314.51292,0.02072
4312.58421,0.02073
4310.65551,0.02071
4308.72680,0.02067
4306.79810,0.02064
4304.86939,0.02065
4302.94069,0.02067
4301.01199,0.02067
4299.08328,0.02066
4297.15458,0.02063
4295.22587,0.02057
4293.29717,0.02053
4291.36846,0.02052
4289.43976,0.02052
4287.51105,0.02054
4285.58235,0.02057
4283.65364,0.02058
4281.72494,0.02057
4279.79623,0.02056
4277.86753,0.02054
4275.93882,0.02053
4274.01012,0.02053
4272.08141,0.02053
4270.15271,0.02050
4268.22400,0.02044
4266.29530,0.02041
4264.36659,0.02041
4262.43789,0.02042
4260.50918,0.02039
4258.58048,0.02038
4256.65177,0.02040
4254.72307,0.02041
4252.79436,0.02042
4250.86566,0.02043
4248.93695,0.02044
4247.00825,0.02044
4245.07954,0.02041
4243.15084,0.02039
4241.22213,0.02037
4239.29343,0.02035
4237.36472,0.02031
4235.43602,0.02029
4233.50731,0.02029
4231.57861,0.02030
4229.64990,0.02029
4227.72120,0.02026
4225.79249,0.02025
4223.86379,0.02026
4221.93508,0.02025
4220.00638,0.02022
4218.07767,0.02020
4216.14897,0.02022
4214.22026,0.02025
4212.29156,0.02024
4210.36285,0.02021
4208.43415,0.02020
4206.50544,0.02022
4204.57674,0.02025
4202.64803,0.02025
4200.71933,0.02022
4198.79062,0.02020
4196.86192,0.02021
4194.93321,0.02023
4193.00451,0.02021
4191.07580,0.02019
4189.14710,0.02020
4187.21839,0.02021
4185.28969,0.02018
4183.36098,0.02013
4181.43228,0.02012
4179.50357,0.02012
4177.57487,0.02011
4175.64616,0.02010
4173.71746,0.02010
4171.78875,0.02009
4169.86005,0.02009
4167.93135,0.02007
4166.00264,0.02005
4164.07394,0.02002
4162.14523,0.01999
4160.21653,0.01997
4158.28782,0.01997
4156.35912,0.01998
4154.43041,0.02000
4152.50171,0.02000
4150.57300,0.01999
4148.64430,0.01998
4146.71559,0.01997
4144.78689,0.01994
4142.85818,0.01991
4140.92948,0.01990
4139.00077,0.01989
4137.07207,0.01988
4135.14336,0.01986
4133.21466,0.01987
4131.28595,0.01988
4129.35725,0.01989
4127.42854,0.01987
4125.49984,0.01984
4123.57113,0.01982
4121.64243,0.01982
4119.71372,0.01982
4117.78502,0.01980
4115.85631,0.01978
4113.92761,0.01976
4111.99890,0.01974
4110.07020,0.01974
4108.14149,0.01974
4106.21279,0.01976
4104.28408,0.01975
4102.35538,0.01971
4100.42667,0.01966
4098.49797,0.01963
4096.56926,0.01964
4094.64056,0.01967
4092.71185,0.01968
4090.78315,0.01968
4088.85444,0.01966
4086.92574,0.01963
4084.99703,0.01960
4083.06833,0.01960
4081.13962,0.01962
4079.21092,0.01962
4077.28221,0.01960
4075.35351,0.01959
4073.42480,0.01958
4071.49610,0.01955
4069.56739,0.01952
4067.63869,0.01953
4065.70998,0.01954
4063.78128,0.01953
4061.85257,0.01952
4059.92387,0.01951
4057.99516,0.01950
4056.06646,0.01950
4054.13775,0.01950
4052.20905,0.01949
4050.28034,0.01946
4048.35164,0.01944
4046.42293,0.01942
4044.49423,0.01939
4042.56552,0.01938
4040.63682,0.01938
4038.70812,0.01940
4036.77941,0.01939
4034.85071,0.01935
4032.92200,0.01931
4030.99330,0.01927
4029.06459,0.01927
4027.13589,0.01928
4025.20718,0.01926
4023.27848,0.01922
4021.34977,0.01918
4019.42107,0.01916
4017.49236,0.01913
4015.56366,0.01911
4013.63495,0.01911
4011.70625,0.01911
4009.77754,0.01911
4007.84884,0.01910
4005.92013,0.01908
4003.99143,0.01907
4002.06272,0.01905
4000.13402,0.01905
3998.20531,0.01905
3996.27661,0.01903
3994.34790,0.01902
3992.41920,0.01903
3990.49049,0.01902
3988.56179,0.01900
3986.63308,0.01897
3984.70438,0.01895
3982.77567,0.01894
3980.84697,0.01893
3978.91826,0.01893
3976.98956,0.01892
3975.06085,0.01890
3973.13215,0.01885
3971.20344,0.01882
3969.27474,0.01882
3967.34603,0.01882
3965.41733,0.01881
3963.48862,0.01879
3961.55992,0.01878
3959.63121,0.01878
3957.70251,0.01878
3955.77380,0.01877
3953.84510,0.01874
3951.91639,0.01873
3949.98769,0.01874
3948.05898,0.01873
3946.13028,0.01871
3944.20157,0.01869
3942.27287,0.01867
3940.34416,0.01863
3938.41546,0.01861
3936.48675,0.01862
3934.55805,0.01863
3932.62934,0.01861
3930.70064,0.01858
3928.77193,0.01858
3926.84323,0.01860
3924.91452,0.01861
3922.98582,0.01859
3921.05711,0.01856
3919.12841,0.01855
3917.19970,0.01854
3915.27100,0.01854
3913.34229,0.01854
3911.41359,0.01853
3909.48489,0.01853
3907.55618,0.01859
3905.62748,0.01868
3903.69877,0.01874
3901.77007,0.01875
3899.84136,0.01871
3897.91266,0.01867
3895.98395,0.01865
3894.05525,0.01868
3892.12654,0.01875
3890.19784,0.01877
3888.26913,0.01878
3886.34043,0.01880
3884.41172,0.01879
3882.48302,0.01874
3880.55431,0.01869
3878.62561,0.01861
3876.69690,0.01856
3874.76820,0.01855
3872.83949,0.01857
3870.91079,0.01859
3868.98208,0.01857
3867.05338,0.01850
3865.12467,0.01845
3863.19597,0.01841
3861.26726,0.01834
3859.33856,0.01830
3857.40985,0.01840
3855.48115,0.01863
3853.55244,0.01875
3851.62374,0.01858
3849.69503,0.01832
3847.76633,0.01820
3845.83762,0.01821
3843.90892,0.01824
3841.98021,0.01824
3840.05151,0.01827
3838.12280,0.01828
3836.19410,0.01819
3834.26539,0.01806
3832.33669,0.01799
3830.40798,0.01794
3828.47928,0.01788
3826.55057,0.01784
3824.62187,0.01786
3822.69316,0.01793
3820.76446,0.01796
3818.83575,0.01794
3816.90705,0.01792
3814.97834,0.01784
3813.04964,0.01770
3811.12093,0.01765
3809.19223,0.01769
3807.26352,0.01771
3805.33482,0.01768
3803.40611,0.01770
3801.47741,0.01773
3799.54870,0.01766
3797.62000,0.01756
3795.69129,0.01749
3793.76259,0.01742
3791.83388,0.01737
3789.90518,0.01734
3787.97647,0.01735
3786.04777,0.01736
3784.11906,0.01734
3782.19036,0.01731
3780.26166,0.01728
3778.33295,0.01724
3776.40425,0.01720
3774.47554,0.01719
3772.54684,0.01721
3770.61813,0.01722
3768.68943,0.01719
3766.76072,0.01715
3764.83202,0.01713
3762.90331,0.01712
3760.97461,0.01714
3759.04590,0.01713
3757.11720,0.01710
3755.18849,0.01713
3753.25979,0.01726
3751.33108,0.01740
3749.40238,0.01738
3747.47367,0.01730
3745.54497,0.01728
3743.61626,0.01720
3741.68756,0.01703
3739.75885,0.01696
3737.83015,0.01700
3735.90144,0.01704
3733.97274,0.01700
3732.04403,0.01691
3730.11533,0.01682
3728.18662,0.01678
3726.25792,0.01676
3724.32921,0.01672
3722.40051,0.01666
3720.47180,0.01659
3718.54310,0.01652
3716.61439,0.01647
3714.68569,0.01648
3712.75698,0.01653
3710.82828,0.01652
3708.89957,0.01642
3706.97087,0.01634
3705.04216,0.01630
3703.11346,0.01627
3701.18475,0.01621
3699.25605,0.01614
3697.32734,0.01610
3695.39864,0.01609
3693.46993,0.01611
3691.54123,0.01618
3689.61252,0.01623
3687.68382,0.01617
3685.75511,0.01601
3683.82641,0.01589
3681.89770,0.01587
3679.96900,0.01591
3678.04029,0.01600
3676.11159,0.01608
3674.18288,0.01606
3672.25418,0.01602
3670.32547,0.01598
3668.39677,0.01584
3666.46806,0.01564
3664.53936,0.01552
3662.61065,0.01547
3660.68195,0.01546
3658.75324,0.01548
3656.82454,0.01552
3654.89583,0.01549
3652.96713,0.01548
3651.03842,0.01554
3649.10972,0.01557
3647.18102,0.01547
3645.25231,0.01531
3643.32361,0.01522
3641.39490,0.01518
3639.46620,0.01516
3637.53749,0.01511
3635.60879,0.01510
3633.68008,0.01515
3631.75138,0.01525
3629.82267,0.01535
3627.89397,0.01531
3625.96526,0.01520
3624.03656,0.01515
3622.10785,0.01518
3620.17915,0.01520
3618.25044,0.01517
3616.32174,0.01510
3614.39303,0.01506
3612.46433,0.01504
3610.53562,0.01502
3608.60692,0.01499
3606.67821,0.01495
3604.74951,0.01488
3602.82080,0.01481
3600.89210,0.01476
3598.96339,0.01473
3597.03469,0.01471
3595.10598,0.01467
3593.17728,0.01463
3591.24857,0.01461
3589.31987,0.01459
3587.39116,0.01455
3585.46246,0.01448
3583.53375,0.01442
3581.60505,0.01436
3579.67634,0.01431
3577.74764,0.01427
3575.81893,0.01422
3573.89023,0.01419
3571.96152,0.01419
3570.03282,0.01422
3568.10411,0.01423
3566.17541,0.01420
3564.24670,0.01414
3562.31800,0.01406
3560.38929,0.01399
3558.46059,0.01394
3556.53188,0.01392
3554.60318,0.01390
3552.67447,0.01386
3550.74577,0.01383
3548.81706,0.01381
3546.88836,0.01377
3544.95965,0.01372
3543.03095,0.01368
3541.10224,0.01368
3539.17354,0.01370
3537.24483,0.01373
3535.31613,0.01375
3533.38742,0.01379
3531.45872,0.01386
3529.53001,0.01395
3527.60131,0.01405
3525.67260,0.01416
3523.74390,0.01429
3521.81519,0.01443
3519.88649,0.01461
3517.95779,0.01481
3516.02908,0.01505
3514.10038,0.01532
3512.17167,0.01561
3510.24297,0.01590
3508.31426,0.01616
3506.38556,0.01647
3504.45685,0.01684
3502.52815,0.01725
3500.59944,0.01769
3498.67074,0.01814
3496.74203,0.01861
3494.81333,0.01912
3492.88462,0.01973
3490.95592,0.02044
3489.02721,0.02126
3487.09851,0.02222
3485.16980,0.02336
3483.24110,0.02476
3481.31239,0.02656
3479.38369,0.02902
3477.45498,0.03254
3475.52628,0.03747
3473.59757,0.04376
3471.66887,0.05037
3469.74016,0.05531
3467.81146,0.05691
3465.88275,0.05513
3463.95405,0.05137
3462.02534,0.04718
3460.09664,0.04346
3458.16793,0.04041
3456.23923,0.03792
3454.31052,0.03590
3452.38182,0.03430
3450.45311,0.03308
3448.52441,0.03215
3446.59570,0.03146
3444.66700,0.03096
3442.73829,0.03067
3440.80959,0.03059
3438.88088,0.03071
3436.95218,0.03102
3435.02347,0.03153
3433.09477,0.03225
3431.16606,0.03326
3429.23736,0.03471
3427.30865,0.03679
3425.37995,0.03966
3423.45124,0.04320
3421.52254,0.04689
3419.59383,0.04986
3417.66513,0.05140
3415.73642,0.05141
3413.80772,0.05032
3411.87901,0.04865
3409.95031,0.04672
3408.02160,0.04478
3406.09290,0.04301
3404.16419,0.04153
3402.23549,0.04037
3400.30678,0.03948
3398.37808,0.03887
3396.44937,0.03850
3394.52067,0.03832
3392.59196,0.03829
3390.66326,0.03842
3388.73456,0.03867
3386.80585,0.03902
3384.87715,0.03944
3382.94844,0.03994
3381.01974,0.04052
3379.09103,0.04119
3377.16233,0.04197
3375.23362,0.04285
3373.30492,0.04380
3371.37621,0.04480
3369.44751,0.04587
3367.51880,0.04703
3365.59010,0.04826
3363.66139,0.04958
3361.73269,0.05096
3359.80398,0.05240
3357.87528,0.05388
3355.94657,0.05543
3354.01787,0.05705
3352.08916,0.05874
3350.16046,0.06045
3348.23175,0.06217
3346.30305,0.06387
3344.37434,0.06555
3342.44564,0.06714
3340.51693,0.06860
3338.58823,0.06996
3336.65952,0.07122
3334.73082,0.07234
3332.80211,0.07329
3330.87341,0.07408
3328.94470,0.07470
3327.01600,0.07516
3325.08729,0.07546
3323.15859,0.07560
3321.22988,0.07560
3319.30118,0.07546
3317.37247,0.07521
3315.44377,0.07485
3313.51506,0.07438
3311.58636,0.07383
3309.65765,0.07323
3307.72895,0.07262
3305.80024,0.07198
3303.87154,0.07133
3301.94283,0.07067
3300.01413,0.07003
3298.08542,0.06942
3296.15672,0.06882
3294.22801,0.06823
3292.29931,0.06768
3290.37060,0.06717
3288.44190,0.06667
3286.51319,0.06618
3284.58449,0.06570
3282.65578,0.06524
3280.72708,0.06478
3278.79837,0.06435
3276.86967,0.06396
3274.94096,0.06361
3273.01226,0.06330
3271.08355,0.06303
3269.15485,0.06277
3267.22614,0.06253
3265.29744,0.06232
3263.36873,0.06213
3261.44003,0.06199
3259.51132,0.06191
3257.58262,0.06185
3255.65392,0.06182
3253.72521,0.06184
3251.79651,0.06190
3249.86780,0.06201
3247.93910,0.06217
3246.01039,0.06240
3244.08169,0.06266
3242.15298,0.06293
3240.22428,0.06327
3238.29557,0.06370
3236.36687,0.06420
3234.43816,0.06474
3232.50946,0.06532
3230.58075,0.06596
3228.65205,0.06666
3226.72334,0.06740
3224.79464,0.06819
3222.86593,0.06901
3220.93723,0.06988
3219.00852,0.07077
3217.07982,0.07169
3215.15111,0.07263
3213.22241,0.07358
3211.29370,0.07455
3209.36500,0.07553
3207.43629,0.07649
3205.50759,0.07744
3203.57888,0.07836
3201.65018,0.07926
3199.72147,0.08016
3197.79277,0.08099
3195.86406,0.08172
3193.93536,0.08243
3192.00665,0.08315
3190.07795,0.08385
3188.14924,0.08445
3186.22054,0.08497
3184.29183,0.08546
3182.36313,0.08592
3180.43442,0.08638
3178.50572,0.08684
3176.57701,0.08729
3174.64831,0.08775
3172.71960,0.08823
3170.79090,0.08877
3168.86219,0.08937
3166.93349,0.09004
3165.00478,0.09080
3163.07608,0.09166
3161.14737,0.09262
3159.21867,0.09367
3157.28996,0.09481
3155.36126,0.09601
3153.43255,0.09724
3151.50385,0.09853
3149.57514,0.09988
3147.64644,0.10128
3145.71773,0.10270
3143.78903,0.10412
3141.86032,0.10550
3139.93162,0.10683
3138.00291,0.10810
3136.07421,0.10926
3134.14550,0.11027
3132.21680,0.11113
3130.28809,0.11182
3128.35939,0.11234
3126.43069,0.11269
3124.50198,0.11288
3122.57328,0.11291
3120.64457,0.11279
3118.71587,0.11254
3116.78716,0.11218
3114.85846,0.11173
3112.92975,0.11119
3111.00105,0.11057
3109.07234,0.10990
3107.14364,0.10921
3105.21493,0.10850
3103.28623,0.10777
3101.35752,0.10704
3099.42882,0.10632
3097.50011,0.10562
3095.57141,0.10491
3093.64270,0.10420
3091.71400,0.10348
3089.78529,0.10274
3087.85659,0.10199
3085.92788,0.10121
3083.99918,0.10043
3082.07047,0.09964
3080.14177,0.09883
3078.21306,0.09803
3076.28436,0.09723
3074.35565,0.09644
3072.42695,0.09565
3070.49824,0.09485
3068.56954,0.09407
3066.64083,0.09331
3064.71213,0.09255
3062.78342,0.09180
3060.85472,0.09106
3058.92601,0.09033
3056.99731,0.08959
3055.06860,0.08885
3053.13990,0.08812
3051.21119,0.08742
3049.28249,0.08672
3047.35378,0.08602
3045.42508,0.08533
3043.49637,0.08465
3041.56767,0.08395
3039.63896,0.08327
3037.71026,0.08262
3035.78155,0.08197
3033.85285,0.08133
3031.92414,0.08069
3029.99544,0.08004
3028.06673,0.07940
3026.13803,0.07878
3024.20932,0.07818
3022.28062,0.07758
3020.35191,0.07699
3018.42321,0.07640
3016.49450,0.07584
3014.56580,0.07527
3012.63709,0.07469
3010.70839,0.07411
3008.77968,0.07354
3006.85098,0.07299
3004.92227,0.07247
3002.99357,0.07197
3001.06486,0.07146
2999.13616,0.07097
2997.20746,0.07050
2995.27875,0.07005
2993.35005,0.06959
2991.42134,0.06914
2989.49264,0.06873
2987.56393,0.06837
2985.63523,0.06801
2983.70652,0.06766
2981.77782,0.06730
2979.84911,0.06696
2977.92041,0.06660
2975.99170,0.06623
2974.06300,0.06584
2972.13429,0.06543
2970.20559,0.06499
2968.27688,0.06455
2966.34818,0.06410
2964.41947,0.06365
2962.49077,0.06320
2960.56206,0.06276
2958.63336,0.06234
2956.70465,0.06194
2954.77595,0.06156
2952.84724,0.06116
2950.91854,0.06073
2948.98983,0.06027
2947.06113,0.05981
2945.13242,0.05934
2943.20372,0.05887
2941.27501,0.05841
2939.34631,0.05795
2937.41760,0.05746
2935.48890,0.05696
2933.56019,0.05646
2931.63149,0.05596
2929.70278,0.05547
2927.77408,0.05499
2925.84537,0.05452
2923.91667,0.05407
2921.98796,0.05363
2920.05926,0.05319
2918.13055,0.05278
2916.20185,0.05244
2914.27314,0.05219
2912.34444,0.05201
2910.41573,0.05182
2908.48703,0.05158
2906.55832,0.05132
2904.62962,0.05103
2902.70091,0.05073
2900.77221,0.05044
2898.84350,0.05018
2896.91480,0.04995
2894.98609,0.04973
2893.05739,0.04950
2891.12868,0.04928
2889.19998,0.04907
2887.27127,0.04888
2885.34257,0.04872
2883.41386,0.04859
2881.48516,0.04847
2879.55645,0.04835
2877.62775,0.04823
2875.69904,0.04811
2873.77034,0.04801
2871.84163,0.04794
2869.91293,0.04788
2867.98422,0.04781
2866.05552,0.04772
2864.12682,0.04765
2862.19811,0.04759
2860.26941,0.04752
2858.34070,0.04741
2856.41200,0.04730
2854.48329,0.04722
2852.55459,0.04716
2850.62588,0.04713
2848.69718,0.04717
2846.76847,0.04729
2844.83977,0.04743
2842.91106,0.04755
2840.98236,0.04765
2839.05365,0.04772
2837.12495,0.04774
2835.19624,0.04774
2833.26754,0.04772
2831.33883,0.04767
2829.41013,0.04760
2827.48142,0.04753
2825.55272,0.04748
2823.62401,0.04741
2821.69531,0.04729
2819.76660,0.04713
2817.83790,0.04695
2815.90919,0.04678
2813.98049,0.04663
2812.05178,0.04645
2810.12308,0.04622
2808.19437,0.04598
2806.26567,0.04575
2804.33696,0.04555
2802.40826,0.04533
2800.47955,0.04508
2798.55085,0.04482
2796.62214,0.04456
2794.69344,0.04430
2792.76473,0.04404
2790.83603,0.04380
2788.90732,0.04356
2786.97862,0.04333
2785.04991,0.04312
2783.12121,0.04291
2781.19250,0.04270
2779.26380,0.04251
2777.33509,0.04234
2775.40639,0.04217
2773.47768,0.04200
2771.54898,0.04183
2769.62027,0.04166
2767.69157,0.04150
2765.76286,0.04133
2763.83416,0.04116
2761.90545,0.04100
2759.97675,0.04084
2758.04804,0.04070
2756.11934,0.04058
2754.19063,0.04046
2752.26193,0.04034
2750.33322,0.04021
2748.40452,0.04009
2746.47581,0.03998
2744.54711,0.03985
2742.61840,0.03969
2740.68970,0.03951
2738.76099,0.03933
2736.83229,0.03913
2734.90359,0.03895
2732.97488,0.03876
2731.04618,0.03857
2729.11747,0.03839
2727.18877,0.03824
2725.26006,0.03811
2723.33136,0.03799
2721.40265,0.03791
2719.47395,0.03784
2717.54524,0.03780
2715.61654,0.03778
2713.68783,0.03775
2711.75913,0.03772
2709.83042,0.03768
2707.90172,0.03765
2705.97301,0.03765
2704.04431,0.03764
2702.11560,0.03762
2700.18690,0.03760
2698.25819,0.03758
2696.32949,0.03756
2694.40078,0.03756
2692.47208,0.03755
2690.54337,0.03755
2688.61467,0.03753
2686.68596,0.03750
2684.75726,0.03745
2682.82855,0.03740
2680.89985,0.03732
2678.97114,0.03723
2677.04244,0.03711
2675.11373,0.03698
2673.18503,0.03684
2671.25632,0.03669
2669.32762,0.03653
2667.39891,0.03637
2665.47021,0.03624
2663.54150,0.03614
2661.61280,0.03607
2659.68409,0.03601
2657.75539,0.03593
2655.82668,0.03585
2653.89798,0.03574
2651.96927,0.03563
2650.04057,0.03553
2648.11186,0.03544
2646.18316,0.03535
2644.25445,0.03524
2642.32575,0.03515
2640.39704,0.03506
2638.46834,0.03498
2636.53963,0.03491
2634.61093,0.03484
2632.68222,0.03475
2630.75352,0.03464
2628.82481,0.03454
2626.89611,0.03447
2624.96740,0.03442
2623.03870,0.03438
2621.10999,0.03429
2619.18129,0.03420
2617.25258,0.03411
2615.32388,0.03405
2613.39517,0.03400
2611.46647,0.03395
2609.53776,0.03388
2607.60906,0.03380
2605.68036,0.03371
2603.75165,0.03362
2601.82295,0.03352
2599.89424,0.03343
2597.96554,0.03336
2596.03683,0.03330
2594.10813,0.03323
2592.17942,0.03318
2590.25072,0.03314
2588.32201,0.03309
2586.39331,0.03302
2584.46460,0.03293
2582.53590,0.03287
2580.60719,0.03285
2578.67849,0.03284
2576.74978,0.03282
2574.82108,0.03281
2572.89237,0.03280
2570.96367,0.03275
2569.03496,0.03268
2567.10626,0.03261
2565.17755,0.03255
2563.24885,0.03248
2561.32014,0.03242
2559.39144,0.03236
2557.46273,0.03229
2555.53403,0.03221
2553.60532,0.03210
2551.67662,0.03202
2549.74791,0.03197
2547.81921,0.03188
2545.89050,0.03178
2543.96180,0.03171
2542.03309,0.03163
2540.10439,0.03153
2538.17568,0.03142
2536.24698,0.03131
2534.31827,0.03122
2532.38957,0.03115
2530.46086,0.03110
2528.53216,0.03106
2526.60345,0.03101
2524.67475,0.03092
2522.74604,0.03082
2520.81734,0.03074
2518.88863,0.03071
2516.95993,0.03068
2515.03122,0.03063
2513.10252,0.03058
2511.17381,0.03054
2509.24511,0.03050
2507.31640,0.03045
2505.38770,0.03041
2503.45899,0.03036
2501.53029,0.03030
2499.60158,0.03024
2497.67288,0.03015
2495.74417,0.03006
2493.81547,0.02997
2491.88676,0.02986
2489.95806,0.02977
2488.02935,0.02969
2486.10065,0.02964
2484.17194,0.02957
2482.24324,0.02950
2480.31453,0.02942
2478.38583,0.02935
2476.45713,0.02930
2474.52842,0.02922
2472.59972,0.02909
2470.67101,0.02896
2468.74231,0.02885
2466.81360,0.02876
2464.88490,0.02870
2462.95619,0.02862
2461.02749,0.02852
2459.09878,0.02841
2457.17008,0.02831
2455.24137,0.02824
2453.31267,0.02815
2451.38396,0.02804
2449.45526,0.02792
2447.52655,0.02783
2445.59785,0.02774
2443.66914,0.02762
2441.74044,0.02747
2439.81173,0.02734
2437.88303,0.02723
2435.95432,0.02713
2434.02562,0.02702
2432.09691,0.02694
2430.16821,0.02688
2428.23950,0.02678
2426.31080,0.02666
2424.38209,0.02655
2422.45339,0.02646
2420.52468,0.02636
2418.59598,0.02625
2416.66727,0.02614
2414.73857,0.02608
2412.80986,0.02602
2410.88116,0.02592
2408.95245,0.02577
2407.02375,0.02561
2405.09504,0.02546
2403.16634,0.02535
2401.23763,0.02527
2399.30893,0.02520
2397.38022,0.02514
2395.45152,0.02505
2393.52281,0.02498
2391.59411,0.02490
2389.66540,0.02481
2387.73670,0.02473
2385.80799,0.02472
2383.87929,0.02473
2381.95058,0.02478
2380.02188,0.02489
2378.09317,0.02512
2376.16447,0.02544
2374.23576,0.02584
2372.30706,0.02631
2370.37835,0.02682
2368.44965,0.02732
2366.52094,0.02776
2364.59224,0.02812
2362.66353,0.02836
2360.73483,0.02840
2358.80612,0.02822
2356.87742,0.02778
2354.94871,0.02712
2353.02001,0.02634
2351.09130,0.02563
2349.16260,0.02530
2347.23389,0.02553
2345.30519,0.02611
2343.37649,0.02669
2341.44778,0.02711
2339.51908,0.02732
2337.59037,0.02739
2335.66167,0.02738
2333.73296,0.02731
2331.80426,0.02717
2329.87555,0.02700
2327.94685,0.02697
2326.01814,0.02726
2324.08944,0.02758
2322.16073,0.02748
2320.23203,0.02704
2318.30332,0.02661
2316.37462,0.02627
2314.44591,0.02601
2312.51721,0.02581
2310.58850,0.02563
2308.65980,0.02547
2306.73109,0.02535
2304.80239,0.02526
2302.87368,0.02521
2300.94498,0.02519
2299.01627,0.02520
2297.08757,0.02523
2295.15886,0.02528
2293.23016,0.02538
2291.30145,0.02553
2289.37275,0.02572
2287.44404,0.02592
2285.51534,0.02607
2283.58663,0.02609
2281.65793,0.02603
2279.72922,0.02600
2277.80052,0.02602
2275.87181,0.02608
2273.94311,0.02616
2272.01440,0.02623
2270.08570,0.02632
2268.15699,0.02638
2266.22829,0.02639
2264.29958,0.02641
2262.37088,0.02650
2260.44217,0.02666
2258.51347,0.02685
2256.58476,0.02696
2254.65606,0.02695
2252.72735,0.02690
2250.79865,0.02692
2248.86994,0.02705
2246.94124,0.02724
2245.01253,0.02747
2243.08383,0.02767
2241.15512,0.02780
2239.22642,0.02791
2237.29771,0.02807
2235.36901,0.02825
2233.44030,0.02840
2231.51160,0.02852
2229.58289,0.02865
2227.65419,0.02881
2225.72548,0.02898
2223.79678,0.02913
2221.86807,0.02925
2219.93937,0.02931
2218.01066,0.02936
2216.08196,0.02944
2214.15326,0.02960
2212.22455,0.02981
2210.29585,0.02998
2208.36714,0.03012
2206.43844,0.03025
2204.50973,0.03036
2202.58103,0.03041
2200.65232,0.03045
2198.72362,0.03051
2196.79491,0.03063
2194.86621,0.03081
2192.93750,0.03100
2191.00880,0.03119
2189.08009,0.03135
2187.15139,0.03147
2185.22268,0.03152
2183.29398,0.03141
2181.36527,0.03112
2179.43657,0.03092
2177.50786,0.03086
2175.57916,0.03068
2173.65045,0.03054
2171.72175,0.03071
2169.79304,0.03107
2167.86434,0.03141
2165.93563,0.03170
2164.00693,0.03202
2162.07822,0.03231
2160.14952,0.03164
2158.22081,0.02962
2156.29211,0.02784
2154.36340,0.02728
2152.43470,0.02728
2150.50599,0.02727
2148.57729,0.02709
2146.64858,0.02674
2144.71988,0.02632
2142.79117,0.02600
2140.86247,0.02576
2138.93376,0.02549
2137.00506,0.02506
2135.07635,0.02442
2133.14765,0.02377
2131.21894,0.02334
2129.29024,0.02314
2127.36153,0.02312
2125.43283,0.02318
2123.50412,0.02319
2121.57542,0.02312
2119.64671,0.02304
2117.71801,0.02303
2115.78930,0.02313
2113.86060,0.02320
2111.93189,0.02310
2110.00319,0.02289
2108.07448,0.02272
2106.14578,0.02262
2104.21707,0.02251
2102.28837,0.02237
2100.35966,0.02220
2098.43096,0.02199
2096.50225,0.02169
2094.57355,0.02133
2092.64484,0.02114
2090.71614,0.02116
2088.78743,0.02126
2086.85873,0.02134
2084.93003,0.02139
2083.00132,0.02141
2081.07262,0.02145
2079.14391,0.02152
2077.21521,0.02157
2075.28650,0.02159
2073.35780,0.02160
2071.42909,0.02159
2069.50039,0.02157
2067.57168,0.02151
2065.64298,0.02147
2063.71427,0.02147
2061.78557,0.02150
2059.85686,0.02152
2057.92816,0.02163
2055.99945,0.02178
2054.07075,0.02198
2052.14204,0.02244
2050.21334,0.02292
2048.28463,0.02295
2046.35593,0.02274
2044.42722,0.02266
2042.49852,0.02277
2040.56981,0.02297
2038.64111,0.02318
2036.71240,0.02330
2034.78370,0.02313
2032.85499,0.02272
2030.92629,0.02241
2028.99758,0.02227
2027.06888,0.02214
2025.14017,0.02195
2023.21147,0.02177
2021.28276,0.02160
2019.35406,0.02141
2017.42535,0.02121
2015.49665,0.02106
2013.56794,0.02094
2011.63924,0.02083
2009.71053,0.02069
2007.78183,0.02036
2005.85312,0.01987
2003.92442,0.01948
2001.99571,0.01927
2000.06701,0.01918
1998.13830,0.01912
1996.20960,0.01907
1994.28089,0.01901
1992.35219,0.01896
1990.42348,0.01895
1988.49478,0.01900
1986.56607,0.01906
1984.63737,0.01922
1982.70866,0.01964
1980.77996,0.02014
1978.85125,0.02008
1976.92255,0.01926
1974.99384,0.01834
1973.06514,0.01778
1971.13643,0.01754
1969.20773,0.01749
1967.27902,0.01738
1965.35032,0.01710
1963.42161,0.01671
1961.49291,0.01627
1959.56420,0.01586
1957.63550,0.01559
1955.70679,0.01545
1953.77809,0.01532
1951.84939,0.01514
1949.92068,0.01499
1947.99198,0.01487
1946.06327,0.01469
1944.13457,0.01445
1942.20586,0.01420
1940.27716,0.01399
1938.34845,0.01382
1936.41975,0.01364
1934.49104,0.01346
1932.56234,0.01330
1930.63363,0.01313
1928.70493,0.01294
1926.77622,0.01274
1924.84752,0.01258
1922.91881,0.01251
1920.99011,0.01250
1919.06140,0.01245
1917.13270,0.01233
1915.20399,0.01217
1913.27529,0.01202
1911.34658,0.01191
1909.41788,0.01185
1907.48917,0.01178
1905.56047,0.01164
1903.63176,0.01146
1901.70306,0.01132
1899.77435,0.01122
1897.84565,0.01113
1895.91694,0.01103
1893.98824,0.01090
1892.05953,0.01080
1890.13083,0.01074
1888.20212,0.01069
1886.27342,0.01063
1884.34471,0.01056
1882.41601,0.01044
1880.48730,0.01033
1878.55860,0.01025
1876.62989,0.01016
1874.70119,0.01005
1872.77248,0.00999
1870.84378,0.00995
1868.91507,0.00990
1866.98637,0.00980
1865.05766,0.00971
1863.12896,0.00967
1861.20025,0.00962
1859.27155,0.00950
1857.34284,0.00936
1855.41414,0.00924
1853.48543,0.00916
1851.55673,0.00911
1849.62802,0.00906
1847.69932,0.00902
1845.77061,0.00899
1843.84191,0.00889
1841.91320,0.00874
1839.98450,0.00862
1838.05579,0.00855
1836.12709,0.00849
1834.19838,0.00843
1832.26968,0.00839
1830.34097,0.00835
1828.41227,0.00827
1826.48356,0.00820
1824.55486,0.00813
1822.62616,0.00806
1820.69745,0.00794
1818.76875,0.00770
1816.84004,0.00745
1814.91134,0.00735
1812.98263,0.00738
1811.05393,0.00740
1809.12522,0.00737
1807.19652,0.00731
1805.26781,0.00727
1803.33911,0.00727
1801.41040,0.00727
1799.48170,0.00726
1797.55299,0.00724
1795.62429,0.00727
1793.69558,0.00733
1791.76688,0.00736
1789.83817,0.00733
1787.90947,0.00732
1785.98076,0.00736
1784.05206,0.00742
1782.12335,0.00747
1780.19465,0.00751
1778.26594,0.00754
1776.33724,0.00763
1774.40853,0.00781
1772.47983,0.00798
1770.55112,0.00802
1768.62242,0.00800
1766.69371,0.00799
1764.76501,0.00800
1762.83630,0.00803
1760.90760,0.00800
1758.97889,0.00792
1757.05019,0.00785
1755.12148,0.00782
1753.19278,0.00784
1751.26407,0.00788
1749.33537,0.00786
1747.40666,0.00781
1745.47796,0.00779
1743.54925,0.00783
1741.62055,0.00792
1739.69184,0.00803
1737.76314,0.00817
1735.83443,0.00843
1733.90573,0.00868
1731.97702,0.00878
1730.04832,0.00886
1728.11961,0.00905
1726.19091,0.00934
1724.26220,0.00969
1722.33350,0.01011
1720.40479,0.01066
1718.47609,0.01128
1716.54738,0.01183
1714.61868,0.01227
1712.68997,0.01273
1710.76127,0.01332
1708.83256,0.01405
1706.90386,0.01489
1704.97515,0.01579
1703.04645,0.01681
1701.11774,0.01794
1699.18904,0.01901
1697.26033,0.02005
1695.33163,0.02117
1693.40293,0.02238
1691.47422,0.02385
1689.54552,0.02568
1687.61681,0.02791
1685.68811,0.03057
1683.75940,0.03351
1681.83070,0.03664
1679.90199,0.04009
1677.97329,0.04387
1676.04458,0.04780
1674.11588,0.05183
1672.18717,0.05618
1670.25847,0.06114
1668.32976,0.06673
1666.40106,0.07280
1664.47235,0.07927
1662.54365,0.08587
1660.61494,0.09223
1658.68624,0.09828
1656.75753,0.10413
1654.82883,0.10983
1652.90012,0.11498
1650.97142,0.11894
1649.04271,0.12176
1647.11401,0.12374
1645.18530,0.12496
1643.25660,0.12577
1641.32789,0.12672
1639.39919,0.12817
1637.47048,0.13022
1635.54178,0.13271
1633.61307,0.13535
1631.68437,0.13806
1629.75566,0.14079
1627.82696,0.14331
1625.89825,0.14538
1623.96955,0.14678
1622.04084,0.14729
1620.11214,0.14687
1618.18343,0.14554
1616.25473,0.14325
1614.32602,0.14021
1612.39732,0.13683
1610.46861,0.13340
1608.53991,0.13017
1606.61120,0.12734
1604.68250,0.12507
1602.75379,0.12344
1600.82509,0.12262
1598.89638,0.12275
1596.96768,0.12401
1595.03897,0.12645
1593.11027,0.12992
1591.18156,0.13410
1589.25286,0.13865
1587.32415,0.14325
1585.39545,0.14766
1583.46674,0.15171
1581.53804,0.15530
1579.60933,0.15841
1577.68063,0.16102
1575.75192,0.16307
1573.82322,0.16459
1571.89451,0.16598
1569.96581,0.16749
1568.03710,0.16918
1566.10840,0.17122
1564.17970,0.17385
1562.25099,0.17725
1560.32229,0.18145
1558.39358,0.18609
1556.46488,0.19081
1554.53617,0.19560
1552.60747,0.20041
1550.67876,0.20498
1548.75006,0.20907
1546.82135,0.21252
1544.89265,0.21527
1542.96394,0.21738
1541.03524,0.21894
1539.10653,0.21995
1537.17783,0.22054
1535.24912,0.22098
1533.32042,0.22128
1531.39171,0.22129
1529.46301,0.22095
1527.53430,0.22014
1525.60560,0.21862
1523.67689,0.21629
1521.74819,0.21301
1519.81948,0.20872
1517.89078,0.20362
1515.96207,0.19798
1514.03337,0.19206
1512.10466,0.18616
1510.17596,0.18054
1508.24725,0.17526
1506.31855,0.17011
1504.38984,0.16504
1502.46114,0.16029
1500.53243,0.15592
1498.60373,0.15183
1496.67502,0.14790
1494.74632,0.14415
1492.81761,0.14074
1490.88891,0.13772
1488.96020,0.13507
1487.03150,0.13294
1485.10279,0.13161
1483.17409,0.13149
1481.24538,0.13296
1479.31668,0.13634
1477.38797,0.14170
1475.45927,0.14868
1473.53056,0.15655
1471.60186,0.16433
1469.67315,0.17102
1467.74445,0.17591
1465.81574,0.17862
1463.88704,0.17925
1461.95833,0.17855
1460.02963,0.17753
1458.10092,0.17689
1456.17222,0.17689
1454.24351,0.17785
1452.31481,0.18018
1450.38610,0.18411
1448.45740,0.18960
1446.52869,0.19640
1444.59999,0.20421
1442.67128,0.21275
1440.74258,0.22169
1438.81387,0.23058
1436.88517,0.23871
1434.95646,0.24509
1433.02776,0.24910
1431.09906,0.25072
1429.17035,0.25029
1427.24165,0.24842
1425.31294,0.24573
1423.38424,0.24266
1421.45553,0.23951
1419.52683,0.23638
1417.59812,0.23328
1415.66942,0.23024
1413.74071,0.22720
1411.81201,0.22406
1409.88330,0.22077
1407.95460,0.21742
1406.02589,0.21412
1404.09719,0.21088
1402.16848,0.20772
1400.23978,0.20464
1398.31107,0.20161
1396.38237,0.19860
1394.45366,0.19559
1392.52496,0.19255
1390.59625,0.18956
1388.66755,0.18666
1386.73884,0.18386
1384.81014,0.18120
1382.88143,0.17880
1380.95273,0.17670
1379.02402,0.17491
1377.09532,0.17355
1375.16661,0.17273
1373.23791,0.17255
1371.30920,0.17312
1369.38050,0.17455
1367.45179,0.17676
1365.52309,0.17940
1363.59438,0.18192
1361.66568,0.18377
1359.73697,0.18478
1357.80827,0.18517
1355.87956,0.18530
1353.95086,0.18538
1352.02215,0.18548
1350.09345,0.18561
1348.16474,0.18572
1346.23604,0.18578
1344.30733,0.18577
1342.37863,0.18570
1340.44992,0.18557
1338.52122,0.18540
1336.59251,0.18521
1334.66381,0.18506
1332.73510,0.18504
1330.80640,0.18515
1328.87769,0.18533
1326.94899,0.18555
1325.02028,0.18574
1323.09158,0.18582
1321.16287,0.18568
1319.23417,0.18526
1317.30546,0.18458
1315.37676,0.18373
1313.44805,0.18288
1311.51935,0.18217
1309.59064,0.18154
1307.66194,0.18083
1305.73323,0.17982
1303.80453,0.17842
1301.87583,0.17663
1299.94712,0.17452
1298.01842,0.17223
1296.08971,0.16988
1294.16101,0.16754
1292.23230,0.16529
1290.30360,0.16318
1288.37489,0.16130
1286.44619,0.15967
1284.51748,0.15829
1282.58878,0.15712
1280.66007,0.15607
1278.73137,0.15511
1276.80266,0.15423
1274.87396,0.15345
1272.94525,0.15281
1271.01655,0.15233
1269.08784,0.15199
1267.15914,0.15173
1265.23043,0.15148
1263.30173,0.15117
1261.37302,0.15076
1259.44432,0.15026
1257.51561,0.14965
1255.58691,0.14894
1253.65820,0.14815
1251.72950,0.14727
1249.80079,0.14632
1247.87209,0.14532
1245.94338,0.14429
1244.01468,0.14324
1242.08597,0.14220
1240.15727,0.14117
1238.22856,0.14014
1236.29986,0.13909
1234.37115,0.13802
1232.44245,0.13695
1230.51374,0.13587
1228.58504,0.13481
1226.65633,0.13375
1224.72763,0.13269
1222.79892,0.13165
1220.87022,0.13065
1218.94151,0.12975
1217.01281,0.12897
1215.08410,0.12834
1213.15540,0.12790
1211.22669,0.12768
1209.29799,0.12771
1207.36928,0.12805
1205.44058,0.12872
1203.51187,0.12968
1201.58317,0.13078
1199.65446,0.13185
1197.72576,0.13271
1195.79705,0.13329
1193.86835,0.13365
1191.93964,0.13390
1190.01094,0.13411
1188.08223,0.13424
1186.15353,0.13418
1184.22482,0.13388
1182.29612,0.13344
1180.36741,0.13307
1178.43871,0.13295
1176.51000,0.13310
1174.58130,0.13331
1172.65260,0.13322
1170.72389,0.13255
1168.79519,0.13125
1166.86648,0.12948
1164.93778,0.12744
1163.00907,0.12536
1161.08037,0.12344
1159.15166,0.12180
1157.22296,0.12046
1155.29425,0.11937
1153.36555,0.11845
1151.43684,0.11760
1149.50814,0.11676
1147.57943,0.11595
1145.65073,0.11515
1143.72202,0.11435
1141.79332,0.11356
1139.86461,0.11280
1137.93591,0.11209
1136.00720,0.11137
1134.07850,0.11066
1132.14979,0.10999
1130.22109,0.10939
1128.29238,0.10884
1126.36368,0.10836
1124.43497,0.10799
1122.50627,0.10780
1120.57756,0.10795
1118.64886,0.10848
1116.72015,0.10924
1114.79145,0.10999
1112.86274,0.11060
1110.93404,0.11107
1109.00533,0.11135
1107.07663,0.11126
1105.14792,0.11076
1103.21922,0.11001
1101.29051,0.10918
1099.36181,0.10838
1097.43310,0.10759
1095.50440,0.10683
1093.57569,0.10612
1091.64699,0.10546
1089.71828,0.10484
1087.78958,0.10426
1085.86087,0.10366
1083.93217,0.10306
1082.00346,0.10245
1080.07476,0.10184
1078.14605,0.10122
1076.21735,0.10059
1074.28864,0.09993
1072.35994,0.09930
1070.43123,0.09872
1068.50253,0.09818
1066.57382,0.09766
1064.64512,0.09716
1062.71641,0.09668
1060.78771,0.09622
1058.85900,0.09583
1056.93030,0.09555
1055.00159,0.09534
1053.07289,0.09526
1051.14418,0.09541
1049.21548,0.09593
1047.28677,0.09699
1045.35807,0.09882
1043.42936,0.10161
1041.50066,0.10549
1039.57196,0.11042
1037.64325,0.11603
1035.71455,0.12165
1033.78584,0.12661
1031.85714,0.13059
1029.92843,0.13366
1027.99973,0.13602
1026.07102,0.13777
1024.14232,0.13886
1022.21361,0.13918
1020.28491,0.13875
1018.35620,0.13765
1016.42750,0.13599
1014.49879,0.13396
1012.57009,0.13173
1010.64138,0.12941
1008.71268,0.12706
1006.78397,0.12468
1004.85527,0.12226
1002.92656,0.11981
1000.99786,0.11737
999.06915,0.11503
997.14045,0.11289
995.21174,0.11104
993.28304,0.10954
991.35433,0.10835
989.42563,0.10738
987.49692,0.10649
985.56822,0.10558
983.63951,0.10462
981.71081,0.10361
979.78210,0.10255
977.85340,0.10140
975.92469,0.10019
973.99599,0.09896
972.06728,0.09779
970.13858,0.09667
968.20987,0.09562
966.28117,0.09465
964.35246,0.09380
962.42376,0.09305
960.49505,0.09237
958.56635,0.09173
956.63764,0.09106
954.70894,0.09039
952.78023,0.08971
950.85153,0.08900
948.92282,0.08827
946.99412,0.08755
945.06541,0.08684
943.13671,0.08612
941.20800,0.08541
939.27930,0.08476
937.35059,0.08415
935.42189,0.08358
933.49318,0.08305
931.56448,0.08259
929.63577,0.08215
927.70707,0.08174
925.77836,0.08132
923.84966,0.08092
921.92095,0.08056
919.99225,0.08023
918.06354,0.07991
916.13484,0.07961
914.20613,0.07936
912.27743,0.07914
910.34873,0.07896
908.42002,0.07881
906.49132,0.07865
904.56261,0.07846
902.63391,0.07826
900.70520,0.07813
898.77650,0.07807
896.84779,0.07805
894.91909,0.07804
892.99038,0.07803
891.06168,0.07805
889.13297,0.07813
887.20427,0.07826
885.27556,0.07838
883.34686,0.07847
881.41815,0.07855
879.48945,0.07866
877.56074,0.07876
875.63204,0.07881
873.70333,0.07881
871.77463,0.07879
869.84592,0.07876
867.91722,0.07867
865.98851,0.07858
864.05981,0.07846
862.13110,0.07832
860.20240,0.07815
858.27369,0.07800
856.34499,0.07789
854.41628,0.07779
852.48758,0.07771
850.55887,0.07775
848.63017,0.07787
846.70146,0.07800
844.77276,0.07821
842.84405,0.07859
840.91535,0.07915
838.98664,0.07986
837.05794,0.08077
835.12923,0.08196
833.20053,0.08362
831.27182,0.08594
829.34312,0.08915
827.41441,0.09352
825.48571,0.09945
823.55700,0.10768
821.62830,0.11919
819.69959,0.13480
817.77089,0.15475
815.84218,0.17800
813.91348,0.20168
811.98477,0.22112
810.05607,0.23173
808.12736,0.23161
806.19866,0.22241
804.26995,0.20852
802.34125,0.19472
800.41254,0.18308
798.48384,0.17261
796.55513,0.16258
794.62643,0.15404
792.69772,0.14790
790.76902,0.14389
788.84031,0.14116
786.91161,0.13919
784.98290,0.13793
783.05420,0.13733
781.12550,0.13716
779.19679,0.13726
777.26809,0.13761
775.33938,0.13820
773.41068,0.13897
771.48197,0.13972
769.55327,0.14013
767.62456,0.14013
765.69586,0.13988
763.76715,0.13948
761.83845,0.13885
759.90974,0.13784
757.98104,0.13644
756.05233,0.13473
754.12363,0.13305
752.19492,0.13174
750.26622,0.13045
748.33751,0.12854
746.40881,0.12596
744.48010,0.12355
742.55140,0.12255
740.62269,0.12394
738.69399,0.12749
736.76528,0.13183
734.83658,0.13553
732.90787,0.13798
730.97917,0.13919
729.05046,0.13951
727.12176,0.13939
725.19305,0.13917
723.26435,0.13890
721.33564,0.13862
719.40694,0.13841
717.47823,0.13824
715.54953,0.13814
713.62082,0.13815
711.69212,0.13824
709.76341,0.13831
707.83471,0.13840
705.90600,0.13861
703.97730,0.13890
702.04859,0.13920
700.11989,0.13955
698.19118,0.13992
696.26248,0.14029
694.33377,0.14069
692.40507,0.14114
690.47636,0.14163
688.54766,0.14208
686.61895,0.14236
684.69025,0.14251
682.76154,0.14280
680.83284,0.14384
678.90413,0.14617
676.97543,0.14922
675.04672,0.15156
673.11802,0.15257
671.18931,0.15300
669.26061,0.15351
667.33190,0.15367
665.40320,0.15329
663.47449,0.15320
661.54579,0.15377
659.61708,0.15450
657.68838,0.15513
655.75967,0.15585
653.83097,0.15687
651.90226,0.15811
649.97356,0.15935
648.04486,0.16058
646.11615,0.16208
644.18745,0.16393
642.25874,0.16578
640.33004,0.16744
638.40133,0.16921
636.47263,0.17138
634.54392,0.17374
632.61522,0.17594
630.68651,0.17800
628.75781,0.18019
626.82910,0.18285
624.90040,0.18600
622.97169,0.18899
621.04299,0.19132
619.11428,0.19365
617.18558,0.19649
615.25687,0.19933
613.32817,0.20189
611.39946,0.20400
609.47076,0.20467
607.54205,0.20382
605.61335,0.20294
603.68464,0.20166
601.75594,0.19796
599.82723,0.19168
