4497.73989,0.02667
4495.81118,0.02665
4493.88248,0.02663
4491.95377,0.02664
4490.02507,0.02665
4488.09636,0.02664
4486.16766,0.02663
4484.23895,0.02664
4482.31025,0.02663
4480.38154,0.02660
4478.45284,0.02661
4476.52413,0.02664
4474.59543,0.02663
4472.66672,0.02660
4470.73802,0.02657
4468.80931,0.02657
4466.88061,0.02655
4464.95190,0.02651
4463.02320,0.02648
4461.09449,0.02646
4459.16579,0.02645
4457.23708,0.02648
4455.30838,0.02648
4453.37967,0.02642
4451.45097,0.02637
4449.52226,0.02636
4447.59356,0.02634
4445.66485,0.02633
4443.73615,0.02632
4441.80744,0.02630
4439.87874,0.02627
4437.95003,0.02626
4436.02133,0.02627
4434.09262,0.02625
4432.16392,0.02619
4430.23522,0.02615
4428.30651,0.02616
4426.37781,0.02617
4424.44910,0.02614
4422.52040,0.02609
4420.59169,0.02608
4418.66299,0.02608
4416.73428,0.02607
4414.80558,0.02605
4412.87687,0.02604
4410.94817,0.02600
4409.01946,0.02595
4407.09076,0.02594
4405.16205,0.02595
4403.23335,0.02596
4401.30464,0.02594
4399.37594,0.02589
4397.44723,0.02585
4395.51853,0.02584
4393.58982,0.02584
4391.66112,0.02581
4389.73241,0.02578
4387.80371,0.02576
4385.87500,0.02574
4383.94630,0.02571
4382.01759,0.02569
4380.08889,0.02568
4378.16018,0.02569
4376.23148,0.02570
4374.30277,0.02571
4372.37407,0.02571
4370.44536,0.02569
4368.51666,0.02564
4366.58795,0.02560
4364.65925,0.02556
4362.73054,0.02557
4360.80184,0.02559
4358.87313,0.02558
4356.94443,0.02556
4355.01572,0.02556
4353.08702,0.02555
4351.15831,0.02554
4349.22961,0.02554
4347.30090,0.02551
4345.37220,0.02547
4343.44349,0.02542
4341.51479,0.02538
4339.58608,0.02536
4337.65738,0.02537
4335.72867,0.02537
4333.79997,0.02536
4331.87126,0.02534
4329.94256,0.02533
4328.01385,0.02529
4326.08515,0.02524
4324.15644,0.02521
4322.22774,0.02520
4320.29903,0.02521
4318.37033,0.02523
4316.44162,0.02524
4314.51292,0.02523
4312.58421,0.02520
4310.65551,0.02515
4308.72680,0.02510
4306.79810,0.02508
4304.86939,0.02508
4302.94069,0.02508
4301.01199,0.02507
4299.08328,0.02505
4297.15458,0.02504
4295.22587,0.02503
4293.29717,0.02500
4291.36846,0.02498
4289.43976,0.02497
4287.51105,0.02498
4285.58235,0.02497
4283.65364,0.02491
4281.72494,0.02489
4279.79623,0.02491
4277.86753,0.02491
4275.93882,0.02485
4274.01012,0.02479
4272.08141,0.02478
4270.15271,0.02480
4268.22400,0.02480
4266.29530,0.02479
4264.36659,0.02478
4262.43789,0.02476
4260.50918,0.02474
4258.58048,0.02474
4256.65177,0.02473
4254.72307,0.02472
4252.79436,0.02471
4250.86566,0.02470
4248.93695,0.02468
4247.00825,0.02463
4245.07954,0.02458
4243.15084,0.02455
4241.22213,0.02453
4239.29343,0.02454
4237.36472,0.02455
4235.43602,0.02454
4233.50731,0.02453
4231.57861,0.02454
4229.64990,0.02454
4227.72120,0.02453
4225.79249,0.02452
4223.86379,0.02451
4221.93508,0.02448
4220.00638,0.02446
4218.07767,0.02446
4216.14897,0.02445
4214.22026,0.02445
4212.29156,0.02446
4210.36285,0.02445
4208.43415,0.02442
4206.50544,0.02440
4204.57674,0.02442
4202.64803,0.02444
4200.71933,0.02443
4198.79062,0.02441
4196.86192,0.02437
4194.93321,0.02436
4193.00451,0.02435
4191.07580,0.02435
4189.14710,0.02433
4187.21839,0.02431
4185.28969,0.02429
4183.36098,0.02425
4181.43228,0.02421
4179.50357,0.02421
4177.57487,0.02424
4175.64616,0.02426
4173.71746,0.02424
4171.78875,0.02422
4169.86005,0.02422
4167.93135,0.02422
4166.00264,0.02419
4164.07394,0.02416
4162.14523,0.02414
4160.21653,0.02414
4158.28782,0.02415
4156.35912,0.02414
4154.43041,0.02412
4152.50171,0.02412
4150.57300,0.02412
4148.64430,0.02412
4146.71559,0.02411
4144.78689,0.02408
4142.85818,0.02405
4140.92948,0.02404
4139.00077,0.02405
4137.07207,0.02404
4135.14336,0.02400
4133.21466,0.02398
4131.28595,0.02399
4129.35725,0.02400
4127.42854,0.02401
4125.49984,0.02401
4123.57113,0.02401
4121.64243,0.02401
4119.71372,0.02400
4117.78502,0.02398
4115.85631,0.02396
4113.92761,0.02395
4111.99890,0.02394
4110.07020,0.02392
4108.14149,0.02391
4106.21279,0.02393
4104.28408,0.02396
4102.35538,0.02397
4100.42667,0.02392
4098.49797,0.02385
4096.56926,0.02380
4094.64056,0.02379
4092.71185,0.02381
4090.78315,0.02382
4088.85444,0.02380
4086.92574,0.02376
4084.99703,0.02375
4083.06833,0.02376
4081.13962,0.02375
4079.21092,0.02371
4077.28221,0.02369
4075.35351,0.02370
4073.42480,0.02373
4071.49610,0.02372
4069.56739,0.02370
4067.63869,0.02369
4065.70998,0.02369
4063.78128,0.02368
4061.85257,0.02368
4059.92387,0.02367
4057.99516,0.02367
4056.06646,0.02367
4054.13775,0.02362
4052.20905,0.02357
4050.28034,0.02356
4048.35164,0.02358
4046.42293,0.02359
4044.49423,0.02359
4042.56552,0.02358
4040.63682,0.02356
4038.70812,0.02353
4036.77941,0.02349
4034.85071,0.02348
4032.92200,0.02350
4030.99330,0.02350
4029.06459,0.02348
4027.13589,0.02345
4025.20718,0.02343
4023.27848,0.02342
4021.34977,0.02342
4019.42107,0.02341
4017.49236,0.02339
4015.56366,0.02336
4013.63495,0.02332
4011.70625,0.02330
4009.77754,0.02329
4007.84884,0.02329
4005.92013,0.02327
4003.99143,0.02325
4002.06272,0.02325
4000.13402,0.02325
3998.20531,0.02324
3996.27661,0.02323
3994.34790,0.02322
3992.41920,0.02318
3990.49049,0.02315
3988.56179,0.02315
3986.63308,0.02316
3984.70438,0.02316
3982.77567,0.02313
3980.84697,0.02310
3978.91826,0.02308
3976.98956,0.02310
3975.06085,0.02313
3973.13215,0.02311
3971.20344,0.02306
3969.27474,0.02302
3967.34603,0.02299
3965.41733,0.02296
3963.48862,0.02294
3961.55992,0.02294
3959.63121,0.02294
3957.70251,0.02292
3955.77380,0.02290
3953.84510,0.02290
3951.91639,0.02289
3949.98769,0.02286
3948.05898,0.02285
3946.13028,0.02286
3944.20157,0.02288
3942.27287,0.02284
3940.34416,0.02278
3938.41546,0.02274
3936.48675,0.02276
3934.55805,0.02280
3932.62934,0.02282
3930.70064,0.02279
3928.77193,0.02274
3926.84323,0.02272
3924.91452,0.02269
3922.98582,0.02266
3921.05711,0.02268
3919.12841,0.02271
3917.19970,0.02269
3915.27100,0.02261
3913.34229,0.02253
3911.41359,0.02251
3909.48489,0.02252
3907.55618,0.02260
3905.62748,0.02277
3903.69877,0.02291
3901.77007,0.02292
3899.84136,0.02280
3897.91266,0.02261
3895.98395,0.02247
3894.05525,0.02251
3892.12654,0.02260
3890.19784,0.02256
3888.26913,0.02253
3886.34043,0.02259
3884.41172,0.02257
3882.48302,0.02245
3880.55431,0.02238
3878.62561,0.02228
3876.69690,0.02223
3874.76820,0.02230
3872.83949,0.02246
3870.91079,0.02261
3868.98208,0.02257
3867.05338,0.02244
3865.12467,0.02239
3863.19597,0.02230
3861.26726,0.02213
3859.33856,0.02206
3857.40985,0.02236
3855.48115,0.02300
3853.55244,0.02334
3851.62374,0.02291
3849.69503,0.02223
3847.76633,0.02188
3845.83762,0.02185
3843.90892,0.02193
3841.98021,0.02206
3840.05151,0.02229
3838.12280,0.02245
3836.19410,0.02228
3834.26539,0.02197
3832.33669,0.02178
3830.40798,0.02170
3828.47928,0.02166
3826.55057,0.02163
3824.62187,0.02169
3822.69316,0.02189
3820.76446,0.02198
3818.83575,0.02195
3816.90705,0.02196
3814.97834,0.02181
3813.04964,0.02148
3811.12093,0.02131
3809.19223,0.02142
3807.26352,0.02154
3805.33482,0.02152
3803.40611,0.02159
3801.47741,0.02169
3799.54870,0.02150
3797.62000,0.02123
3795.69129,0.02107
3793.76259,0.02094
3791.83388,0.02085
3789.90518,0.02083
3787.97647,0.02086
3786.04777,0.02089
3784.11906,0.02088
3782.19036,0.02086
3780.26166,0.02089
3778.33295,0.02085
3776.40425,0.02074
3774.47554,0.02065
3772.54684,0.02070
3770.61813,0.02080
3768.68943,0.02081
3766.76072,0.02073
3764.83202,0.02065
3762.90331,0.02060
3760.97461,0.02062
3759.04590,0.02064
3757.11720,0.02061
3755.18849,0.02076
3753.25979,0.02116
3751.33108,0.02147
3749.40238,0.02140
3747.47367,0.02130
3745.54497,0.02142
3743.61626,0.02128
3741.68756,0.02078
3739.75885,0.02055
3737.83015,0.02073
3735.90144,0.02091
3733.97274,0.02087
3732.04403,0.02067
3730.11533,0.02044
3728.18662,0.02031
3726.25792,0.02027
3724.32921,0.02021
3722.40051,0.02012
3720.47180,0.01999
3718.54310,0.01984
3716.61439,0.01976
3714.68569,0.01987
3712.75698,0.02007
3710.82828,0.02007
3708.89957,0.01984
3706.97087,0.01963
3705.04216,0.01957
3703.11346,0.01960
3701.18475,0.01956
3699.25605,0.01942
3697.32734,0.01932
3695.39864,0.01930
3693.46993,0.01938
3691.54123,0.01959
3689.61252,0.01980
3687.68382,0.01967
3685.75511,0.01930
3683.82641,0.01902
3681.89770,0.01894
3679.96900,0.01901
3678.04029,0.01928
3676.11159,0.01956
3674.18288,0.01951
3672.25418,0.01938
3670.32547,0.01928
3668.39677,0.01899
3666.46806,0.01865
3664.53936,0.01849
3662.61065,0.01844
3660.68195,0.01844
3658.75324,0.01853
3656.82454,0.01865
3654.89583,0.01865
3652.96713,0.01874
3651.03842,0.01905
3649.10972,0.01924
3647.18102,0.01906
3645.25231,0.01873
3643.32361,0.01855
3641.39490,0.01854
3639.46620,0.01859
3637.53749,0.01868
3635.60879,0.01880
3633.68008,0.01895
3631.75138,0.01923
3629.82267,0.01955
3627.89397,0.01955
3625.96526,0.01928
3624.03656,0.01914
3622.10785,0.01927
3620.17915,0.01946
3618.25044,0.01950
3616.32174,0.01945
3614.39303,0.01948
3612.46433,0.01957
3610.53562,0.01966
3608.60692,0.01968
3606.67821,0.01961
3604.74951,0.01955
3602.82080,0.01955
3600.89210,0.01958
3598.96339,0.01962
3597.03469,0.01967
3595.10598,0.01970
3593.17728,0.01972
3591.24857,0.01979
3589.31987,0.01992
3587.39116,0.01996
3585.46246,0.01984
3583.53375,0.01969
3581.60505,0.01963
3579.67634,0.01958
3577.74764,0.01952
3575.81893,0.01950
3573.89023,0.01953
3571.96152,0.01959
3570.03282,0.01970
3568.10411,0.01981
3566.17541,0.01980
3564.24670,0.01967
3562.31800,0.01956
3560.38929,0.01951
3558.46059,0.01949
3556.53188,0.01951
3554.60318,0.01958
3552.67447,0.01963
3550.74577,0.01968
3548.81706,0.01973
3546.88836,0.01978
3544.95965,0.01980
3543.03095,0.01981
3541.10224,0.01987
3539.17354,0.02001
3537.24483,0.02021
3535.31613,0.02045
3533.38742,0.02073
3531.45872,0.02107
3529.53001,0.02147
3527.60131,0.02195
3525.67260,0.02252
3523.74390,0.02315
3521.81519,0.02382
3519.88649,0.02454
3517.95779,0.02533
3516.02908,0.02621
3514.10038,0.02714
3512.17167,0.02816
3510.24297,0.02924
3508.31426,0.03033
3506.38556,0.03145
3504.45685,0.03264
3502.52815,0.03388
3500.59944,0.03513
3498.67074,0.03644
3496.74203,0.03785
3494.81333,0.03932
3492.88462,0.04083
3490.95592,0.04240
3489.02721,0.04406
3487.09851,0.04577
3485.16980,0.04743
3483.24110,0.04898
3481.31239,0.05043
3479.38369,0.05181
3477.45498,0.05314
3475.52628,0.05440
3473.59757,0.05564
3471.66887,0.05683
3469.74016,0.05788
3467.81146,0.05871
3465.88275,0.05936
3463.95405,0.05985
3462.02534,0.06024
3460.09664,0.06058
3458.16793,0.06091
3456.23923,0.06121
3454.31052,0.06144
3452.38182,0.06158
3450.45311,0.06161
3448.52441,0.06155
3446.59570,0.06144
3444.66700,0.06127
3442.73829,0.06105
3440.80959,0.06083
3438.88088,0.06065
3436.95218,0.06053
3435.02347,0.06048
3433.09477,0.06049
3431.16606,0.06057
3429.23736,0.06072
3427.30865,0.06098
3425.37995,0.06133
3423.45124,0.06176
3421.52254,0.06225
3419.59383,0.06274
3417.66513,0.06319
3415.73642,0.06361
3413.80772,0.06405
3411.87901,0.06453
3409.95031,0.06504
3408.02160,0.06558
3406.09290,0.06615
3404.16419,0.06678
3402.23549,0.06747
3400.30678,0.06820
3398.37808,0.06898
3396.44937,0.06978
3394.52067,0.07057
3392.59196,0.07138
3390.66326,0.07220
3388.73456,0.07298
3386.80585,0.07372
3384.87715,0.07444
3382.94844,0.07516
3381.01974,0.07586
3379.09103,0.07654
3377.16233,0.07720
3375.23362,0.07784
3373.30492,0.07849
3371.37621,0.07914
3369.44751,0.07979
3367.51880,0.08046
3365.59010,0.08113
3363.66139,0.08177
3361.73269,0.08244
3359.80398,0.08314
3357.87528,0.08389
3355.94657,0.08466
3354.01787,0.08545
3352.08916,0.08622
3350.16046,0.08702
3348.23175,0.08786
3346.30305,0.08869
3344.37434,0.08951
3342.44564,0.09032
3340.51693,0.09109
3338.58823,0.09182
3336.65952,0.09251
3334.73082,0.09317
3332.80211,0.09377
3330.87341,0.09432
3328.94470,0.09478
3327.01600,0.09515
3325.08729,0.09545
3323.15859,0.09567
3321.22988,0.09582
3319.30118,0.09590
3317.37247,0.09589
3315.44377,0.09578
3313.51506,0.09560
3311.58636,0.09536
3309.65765,0.09508
3307.72895,0.09475
3305.80024,0.09439
3303.87154,0.09402
3301.94283,0.09362
3300.01413,0.09317
3298.08542,0.09271
3296.15672,0.09226
3294.22801,0.09181
3292.29931,0.09135
3290.37060,0.09089
3288.44190,0.09045
3286.51319,0.09000
3284.58449,0.08954
3282.65578,0.08909
3280.72708,0.08869
3278.79837,0.08832
3276.86967,0.08796
3274.94096,0.08762
3273.01226,0.08730
3271.08355,0.08700
3269.15485,0.08673
3267.22614,0.08651
3265.29744,0.08631
3263.36873,0.08611
3261.44003,0.08596
3259.51132,0.08585
3257.58262,0.08578
3255.65392,0.08573
3253.72521,0.08575
3251.79651,0.08585
3249.86780,0.08599
3247.93910,0.08617
3246.01039,0.08641
3244.08169,0.08671
3242.15298,0.08705
3240.22428,0.08744
3238.29557,0.08787
3236.36687,0.08838
3234.43816,0.08896
3232.50946,0.08960
3230.58075,0.09031
3228.65205,0.09110
3226.72334,0.09193
3224.79464,0.09279
3222.86593,0.09365
3220.93723,0.09453
3219.00852,0.09544
3217.07982,0.09637
3215.15111,0.09729
3213.22241,0.09817
3211.29370,0.09903
3209.36500,0.09989
3207.43629,0.10071
3205.50759,0.10148
3203.57888,0.10221
3201.65018,0.10290
3199.72147,0.10355
3197.79277,0.10414
3195.86406,0.10469
3193.93536,0.10522
3192.00665,0.10572
3190.07795,0.10620
3188.14924,0.10667
3186.22054,0.10712
3184.29183,0.10754
3182.36313,0.10797
3180.43442,0.10843
3178.50572,0.10888
3176.57701,0.10931
3174.64831,0.10978
3172.71960,0.11029
3170.79090,0.11080
3168.86219,0.11128
3166.93349,0.11176
3165.00478,0.11225
3163.07608,0.11275
3161.14737,0.11326
3159.21867,0.11376
3157.28996,0.11428
3155.36126,0.11479
3153.43255,0.11526
3151.50385,0.11572
3149.57514,0.11618
3147.64644,0.11664
3145.71773,0.11710
3143.78903,0.11752
3141.86032,0.11789
3139.93162,0.11823
3138.00291,0.11853
3136.07421,0.11881
3134.14550,0.11909
3132.21680,0.11934
3130.28809,0.11952
3128.35939,0.11965
3126.43069,0.11973
3124.50198,0.11978
3122.57328,0.11977
3120.64457,0.11973
3118.71587,0.11967
3116.78716,0.11956
3114.85846,0.11943
3112.92975,0.11928
3111.00105,0.11909
3109.07234,0.11886
3107.14364,0.11861
3105.21493,0.11833
3103.28623,0.11805
3101.35752,0.11777
3099.42882,0.11746
3097.50011,0.11712
3095.57141,0.11677
3093.64270,0.11643
3091.71400,0.11607
3089.78529,0.11568
3087.85659,0.11530
3085.92788,0.11492
3083.99918,0.11451
3082.07047,0.11408
3080.14177,0.11363
3078.21306,0.11320
3076.28436,0.11280
3074.35565,0.11240
3072.42695,0.11196
3070.49824,0.11151
3068.56954,0.11105
3066.64083,0.11060
3064.71213,0.11015
3062.78342,0.10967
3060.85472,0.10919
3058.92601,0.10872
3056.99731,0.10826
3055.06860,0.10780
3053.13990,0.10731
3051.21119,0.10683
3049.28249,0.10633
3047.35378,0.10583
3045.42508,0.10533
3043.49637,0.10485
3041.56767,0.10439
3039.63896,0.10393
3037.71026,0.10346
3035.78155,0.10297
3033.85285,0.10249
3031.92414,0.10201
3029.99544,0.10153
3028.06673,0.10105
3026.13803,0.10055
3024.20932,0.10006
3022.28062,0.09958
3020.35191,0.09911
3018.42321,0.09863
3016.49450,0.09815
3014.56580,0.09769
3012.63709,0.09723
3010.70839,0.09674
3008.77968,0.09621
3006.85098,0.09570
3004.92227,0.09522
3002.99357,0.09475
3001.06486,0.09427
2999.13616,0.09377
2997.20746,0.09327
2995.27875,0.09279
2993.35005,0.09232
2991.42134,0.09186
2989.49264,0.09139
2987.56393,0.09090
2985.63523,0.09043
2983.70652,0.08998
2981.77782,0.08953
2979.84911,0.08906
2977.92041,0.08858
2975.99170,0.08809
2974.06300,0.08763
2972.13429,0.08719
2970.20559,0.08673
2968.27688,0.08628
2966.34818,0.08583
2964.41947,0.08538
2962.49077,0.08492
2960.56206,0.08446
2958.63336,0.08401
2956.70465,0.08358
2954.77595,0.08317
2952.84724,0.08274
2950.91854,0.08228
2948.98983,0.08181
2947.06113,0.08133
2945.13242,0.08084
2943.20372,0.08036
2941.27501,0.07988
2939.34631,0.07939
2937.41760,0.07890
2935.48890,0.07840
2933.56019,0.07789
2931.63149,0.07739
2929.70278,0.07687
2927.77408,0.07635
2925.84537,0.07584
2923.91667,0.07536
2921.98796,0.07491
2920.05926,0.07444
2918.13055,0.07399
2916.20185,0.07355
2914.27314,0.07314
2912.34444,0.07277
2910.41573,0.07241
2908.48703,0.07202
2906.55832,0.07160
2904.62962,0.07119
2902.70091,0.07080
2900.77221,0.07042
2898.84350,0.07006
2896.91480,0.06973
2894.98609,0.06942
2893.05739,0.06912
2891.12868,0.06881
2889.19998,0.06851
2887.27127,0.06821
2885.34257,0.06790
2883.41386,0.06758
2881.48516,0.06726
2879.55645,0.06698
2877.62775,0.06673
2875.69904,0.06650
2873.77034,0.06626
2871.84163,0.06601
2869.91293,0.06576
2867.98422,0.06551
2866.05552,0.06527
2864.12682,0.06504
2862.19811,0.06482
2860.26941,0.06461
2858.34070,0.06440
2856.41200,0.06417
2854.48329,0.06393
2852.55459,0.06370
2850.62588,0.06350
2848.69718,0.06334
2846.76847,0.06320
2844.83977,0.06304
2842.91106,0.06287
2840.98236,0.06270
2839.05365,0.06254
2837.12495,0.06236
2835.19624,0.06216
2833.26754,0.06194
2831.33883,0.06173
2829.41013,0.06153
2827.48142,0.06134
2825.55272,0.06115
2823.62401,0.06095
2821.69531,0.06078
2819.76660,0.06063
2817.83790,0.06048
2815.90919,0.06031
2813.98049,0.06016
2812.05178,0.06002
2810.12308,0.05990
2808.19437,0.05978
2806.26567,0.05969
2804.33696,0.05960
2802.40826,0.05953
2800.47955,0.05946
2798.55085,0.05938
2796.62214,0.05930
2794.69344,0.05922
2792.76473,0.05912
2790.83603,0.05900
2788.90732,0.05886
2786.97862,0.05869
2785.04991,0.05850
2783.12121,0.05830
2781.19250,0.05809
2779.26380,0.05786
2777.33509,0.05759
2775.40639,0.05734
2773.47768,0.05709
2771.54898,0.05684
2769.62027,0.05660
2767.69157,0.05637
2765.76286,0.05612
2763.83416,0.05587
2761.90545,0.05562
2759.97675,0.05538
2758.04804,0.05515
2756.11934,0.05491
2754.19063,0.05468
2752.26193,0.05446
2750.33322,0.05423
2748.40452,0.05400
2746.47581,0.05377
2744.54711,0.05354
2742.61840,0.05331
2740.68970,0.05308
2738.76099,0.05285
2736.83229,0.05262
2734.90359,0.05238
2732.97488,0.05213
2731.04618,0.05189
2729.11747,0.05165
2727.18877,0.05140
2725.26006,0.05117
2723.33136,0.05094
2721.40265,0.05071
2719.47395,0.05048
2717.54524,0.05027
2715.61654,0.05007
2713.68783,0.04986
2711.75913,0.04967
2709.83042,0.04949
2707.90172,0.04933
2705.97301,0.04916
2704.04431,0.04899
2702.11560,0.04883
2700.18690,0.04868
2698.25819,0.04855
2696.32949,0.04841
2694.40078,0.04826
2692.47208,0.04811
2690.54337,0.04799
2688.61467,0.04789
2686.68596,0.04777
2684.75726,0.04762
2682.82855,0.04746
2680.89985,0.04729
2678.97114,0.04713
2677.04244,0.04698
2675.11373,0.04683
2673.18503,0.04669
2671.25632,0.04653
2669.32762,0.04638
2667.39891,0.04622
2665.47021,0.04609
2663.54150,0.04602
2661.61280,0.04601
2659.68409,0.04598
2657.75539,0.04594
2655.82668,0.04589
2653.89798,0.04584
2651.96927,0.04579
2650.04057,0.04575
2648.11186,0.04572
2646.18316,0.04567
2644.25445,0.04561
2642.32575,0.04556
2640.39704,0.04551
2638.46834,0.04546
2636.53963,0.04539
2634.61093,0.04533
2632.68222,0.04530
2630.75352,0.04526
2628.82481,0.04521
2626.89611,0.04515
2624.96740,0.04508
2623.03870,0.04503
2621.10999,0.04500
2619.18129,0.04495
2617.25258,0.04487
2615.32388,0.04480
2613.39517,0.04472
2611.46647,0.04462
2609.53776,0.04455
2607.60906,0.04453
2605.68036,0.04451
2603.75165,0.04445
2601.82295,0.04435
2599.89424,0.04423
2597.96554,0.04412
2596.03683,0.04405
2594.10813,0.04403
2592.17942,0.04400
2590.25072,0.04393
2588.32201,0.04384
2586.39331,0.04378
2584.46460,0.04373
2582.53590,0.04365
2580.60719,0.04356
2578.67849,0.04344
2576.74978,0.04329
2574.82108,0.04314
2572.89237,0.04300
2570.96367,0.04285
2569.03496,0.04272
2567.10626,0.04263
2565.17755,0.04251
2563.24885,0.04235
2561.32014,0.04219
2559.39144,0.04209
2557.46273,0.04201
2555.53403,0.04192
2553.60532,0.04182
2551.67662,0.04172
2549.74791,0.04162
2547.81921,0.04152
2545.89050,0.04141
2543.96180,0.04133
2542.03309,0.04124
2540.10439,0.04114
2538.17568,0.04105
2536.24698,0.04096
2534.31827,0.04085
2532.38957,0.04075
2530.46086,0.04067
2528.53216,0.04058
2526.60345,0.04046
2524.67475,0.04035
2522.74604,0.04026
2520.81734,0.04019
2518.88863,0.04014
2516.95993,0.04007
2515.03122,0.03997
2513.10252,0.03985
2511.17381,0.03974
2509.24511,0.03965
2507.31640,0.03954
2505.38770,0.03940
2503.45899,0.03928
2501.53029,0.03917
2499.60158,0.03908
2497.67288,0.03898
2495.74417,0.03885
2493.81547,0.03870
2491.88676,0.03853
2489.95806,0.03835
2488.02935,0.03817
2486.10065,0.03799
2484.17194,0.03783
2482.24324,0.03768
2480.31453,0.03753
2478.38583,0.03741
2476.45713,0.03730
2474.52842,0.03716
2472.59972,0.03701
2470.67101,0.03689
2468.74231,0.03678
2466.81360,0.03668
2464.88490,0.03657
2462.95619,0.03649
2461.02749,0.03643
2459.09878,0.03638
2457.17008,0.03634
2455.24137,0.03628
2453.31267,0.03621
2451.38396,0.03610
2449.45526,0.03597
2447.52655,0.03582
2445.59785,0.03564
2443.66914,0.03547
2441.74044,0.03531
2439.81173,0.03518
2437.88303,0.03507
2435.95432,0.03496
2434.02562,0.03484
2432.09691,0.03472
2430.16821,0.03460
2428.23950,0.03448
2426.31080,0.03436
2424.38209,0.03424
2422.45339,0.03409
2420.52468,0.03393
2418.59598,0.03378
2416.66727,0.03365
2414.73857,0.03354
2412.80986,0.03343
2410.88116,0.03329
2408.95245,0.03310
2407.02375,0.03285
2405.09504,0.03260
2403.16634,0.03242
2401.23763,0.03228
2399.30893,0.03214
2397.38022,0.03199
2395.45152,0.03185
2393.52281,0.03172
2391.59411,0.03156
2389.66540,0.03141
2387.73670,0.03131
2385.80799,0.03126
2383.87929,0.03133
2381.95058,0.03154
2380.02188,0.03193
2378.09317,0.03256
2376.16447,0.03350
2374.23576,0.03471
2372.30706,0.03612
2370.37835,0.03761
2368.44965,0.03902
2366.52094,0.04026
2364.59224,0.04121
2362.66353,0.04176
2360.73483,0.04175
2358.80612,0.04112
2356.87742,0.03990
2354.94871,0.03816
2353.02001,0.03605
2351.09130,0.03407
2349.16260,0.03314
2347.23389,0.03375
2345.30519,0.03527
2343.37649,0.03675
2341.44778,0.03779
2339.51908,0.03839
2337.59037,0.03863
2335.66167,0.03862
2333.73296,0.03843
2331.80426,0.03809
2329.87555,0.03764
2327.94685,0.03734
2326.01814,0.03739
2324.08944,0.03747
2322.16073,0.03706
2320.23203,0.03626
2318.30332,0.03547
2316.37462,0.03483
2314.44591,0.03432
2312.51721,0.03391
2310.58850,0.03357
2308.65980,0.03326
2306.73109,0.03302
2304.80239,0.03284
2302.87368,0.03274
2300.94498,0.03269
2299.01627,0.03268
2297.08757,0.03271
2295.15886,0.03283
2293.23016,0.03301
2291.30145,0.03320
2289.37275,0.03337
2287.44404,0.03353
2285.51534,0.03365
2283.58663,0.03367
2281.65793,0.03361
2279.72922,0.03355
2277.80052,0.03348
2275.87181,0.03345
2273.94311,0.03346
2272.01440,0.03346
2270.08570,0.03346
2268.15699,0.03347
2266.22829,0.03349
2264.29958,0.03348
2262.37088,0.03349
2260.44217,0.03360
2258.51347,0.03375
2256.58476,0.03384
2254.65606,0.03381
2252.72735,0.03377
2250.79865,0.03380
2248.86994,0.03392
2246.94124,0.03408
2245.01253,0.03423
2243.08383,0.03434
2241.15512,0.03444
2239.22642,0.03457
2237.29771,0.03474
2235.36901,0.03491
2233.44030,0.03503
2231.51160,0.03514
2229.58289,0.03529
2227.65419,0.03544
2225.72548,0.03552
2223.79678,0.03554
2221.86807,0.03557
2219.93937,0.03564
2218.01066,0.03572
2216.08196,0.03578
2214.15326,0.03580
2212.22455,0.03583
2210.29585,0.03591
2208.36714,0.03602
2206.43844,0.03611
2204.50973,0.03621
2202.58103,0.03634
2200.65232,0.03654
2198.72362,0.03674
2196.79491,0.03687
2194.86621,0.03702
2192.93750,0.03728
2191.00880,0.03758
2189.08009,0.03781
2187.15139,0.03804
2185.22268,0.03830
2183.29398,0.03833
2181.36527,0.03809
2179.43657,0.03793
2177.50786,0.03798
2175.57916,0.03794
2173.65045,0.03787
2171.72175,0.03811
2169.79304,0.03865
2167.86434,0.03929
2165.93563,0.03991
2164.00693,0.04054
2162.07822,0.04100
2160.14952,0.04027
2158.22081,0.03798
2156.29211,0.03597
2154.36340,0.03541
2152.43470,0.03548
2150.50599,0.03540
2148.57729,0.03510
2146.64858,0.03471
2144.71988,0.03438
2142.79117,0.03411
2140.86247,0.03381
2138.93376,0.03351
2137.00506,0.03303
2135.07635,0.03223
2133.14765,0.03140
2131.21894,0.03090
2129.29024,0.03065
2127.36153,0.03040
2125.43283,0.03013
2123.50412,0.02990
2121.57542,0.02972
2119.64671,0.02960
2117.71801,0.02955
2115.78930,0.02956
2113.86060,0.02956
2111.93189,0.02943
2110.00319,0.02918
2108.07448,0.02891
2106.14578,0.02865
2104.21707,0.02839
2102.28837,0.02811
2100.35966,0.02785
2098.43096,0.02757
2096.50225,0.02713
2094.57355,0.02659
2092.64484,0.02624
2090.71614,0.02620
2088.78743,0.02626
2086.85873,0.02629
2084.93003,0.02632
2083.00132,0.02634
2081.07262,0.02634
2079.14391,0.02632
2077.21521,0.02624
2075.28650,0.02612
2073.35780,0.02608
2071.42909,0.02611
2069.50039,0.02610
2067.57168,0.02602
2065.64298,0.02593
2063.71427,0.02586
2061.78557,0.02581
2059.85686,0.02577
2057.92816,0.02580
2055.99945,0.02586
2054.07075,0.02601
2052.14204,0.02655
2050.21334,0.02720
2048.28463,0.02733
2046.35593,0.02711
2044.42722,0.02701
2042.49852,0.02706
2040.56981,0.02717
2038.64111,0.02736
2036.71240,0.02755
2034.78370,0.02751
2032.85499,0.02721
2030.92629,0.02689
2028.99758,0.02665
2027.06888,0.02641
2025.14017,0.02615
2023.21147,0.02590
2021.28276,0.02572
2019.35406,0.02558
2017.42535,0.02537
2015.49665,0.02511
2013.56794,0.02494
2011.63924,0.02483
2009.71053,0.02460
2007.78183,0.02405
2005.85312,0.02330
2003.92442,0.02277
2001.99571,0.02257
2000.06701,0.02252
1998.13830,0.02250
1996.20960,0.02249
1994.28089,0.02247
1992.35219,0.02241
1990.42348,0.02238
1988.49478,0.02247
1986.56607,0.02261
1984.63737,0.02276
1982.70866,0.02307
1980.77996,0.02362
1978.85125,0.02379
1976.92255,0.02301
1974.99384,0.02190
1973.06514,0.02116
1971.13643,0.02077
1969.20773,0.02052
1967.27902,0.02025
1965.35032,0.01993
1963.42161,0.01958
1961.49291,0.01913
1959.56420,0.01861
1957.63550,0.01825
1955.70679,0.01809
1953.77809,0.01794
1951.84939,0.01769
1949.92068,0.01740
1947.99198,0.01711
1946.06327,0.01684
1944.13457,0.01656
1942.20586,0.01626
1940.27716,0.01593
1938.34845,0.01559
1936.41975,0.01531
1934.49104,0.01505
1932.56234,0.01480
1930.63363,0.01457
1928.70493,0.01439
1926.77622,0.01422
1924.84752,0.01405
1922.91881,0.01393
1920.99011,0.01389
1919.06140,0.01386
1917.13270,0.01371
1915.20399,0.01348
1913.27529,0.01328
1911.34658,0.01314
1909.41788,0.01299
1907.48917,0.01284
1905.56047,0.01272
1903.63176,0.01261
1901.70306,0.01250
1899.77435,0.01236
1897.84565,0.01222
1895.91694,0.01208
1893.98824,0.01195
1892.05953,0.01187
1890.13083,0.01181
1888.20212,0.01172
1886.27342,0.01159
1884.34471,0.01147
1882.41601,0.01136
1880.48730,0.01124
1878.55860,0.01112
1876.62989,0.01101
1874.70119,0.01096
1872.77248,0.01094
1870.84378,0.01095
1868.91507,0.01094
1866.98637,0.01082
1865.05766,0.01066
1863.12896,0.01053
1861.20025,0.01041
1859.27155,0.01030
1857.34284,0.01020
1855.41414,0.01015
1853.48543,0.01009
1851.55673,0.01001
1849.62802,0.00994
1847.69932,0.00997
1845.77061,0.01008
1843.84191,0.01008
1841.91320,0.00988
1839.98450,0.00968
1838.05579,0.00958
1836.12709,0.00952
1834.19838,0.00948
1832.26968,0.00950
1830.34097,0.00953
1828.41227,0.00950
1826.48356,0.00942
1824.55486,0.00931
1822.62616,0.00916
1820.69745,0.00897
1818.76875,0.00870
1816.84004,0.00845
1814.91134,0.00837
1812.98263,0.00843
1811.05393,0.00849
1809.12522,0.00849
1807.19652,0.00846
1805.26781,0.00847
1803.33911,0.00853
1801.41040,0.00858
1799.48170,0.00858
1797.55299,0.00855
1795.62429,0.00862
1793.69558,0.00881
1791.76688,0.00890
1789.83817,0.00881
1787.90947,0.00878
1785.98076,0.00891
1784.05206,0.00907
1782.12335,0.00922
1780.19465,0.00934
1778.26594,0.00946
1776.33724,0.00970
1774.40853,0.01013
1772.47983,0.01051
1770.55112,0.01060
1768.62242,0.01054
1766.69371,0.01044
1764.76501,0.01037
1762.83630,0.01035
1760.90760,0.01025
1758.97889,0.01007
1757.05019,0.00991
1755.12148,0.00982
1753.19278,0.00989
1751.26407,0.01002
1749.33537,0.01000
1747.40666,0.00989
1745.47796,0.00986
1743.54925,0.00995
1741.62055,0.01014
1739.69184,0.01034
1737.76314,0.01061
1735.83443,0.01112
1733.90573,0.01156
1731.97702,0.01154
1730.04832,0.01141
1728.11961,0.01149
1726.19091,0.01171
1724.26220,0.01202
1722.33350,0.01243
1720.40479,0.01310
1718.47609,0.01394
1716.54738,0.01448
1714.61868,0.01468
1712.68997,0.01494
1710.76127,0.01549
1708.83256,0.01631
1706.90386,0.01730
1704.97515,0.01834
1703.04645,0.01960
1701.11774,0.02108
1699.18904,0.02238
1697.26033,0.02358
1695.33163,0.02479
1693.40293,0.02598
1691.47422,0.02754
1689.54552,0.02969
1687.61681,0.03242
1685.68811,0.03563
1683.75940,0.03874
1681.83070,0.04154
1679.90199,0.04460
1677.97329,0.04824
1676.04458,0.05218
1674.11588,0.05602
1672.18717,0.05972
1670.25847,0.06343
1668.32976,0.06692
1666.40106,0.07016
1664.47235,0.07343
1662.54365,0.07669
1660.61494,0.07982
1658.68624,0.08305
1656.75753,0.08681
1654.82883,0.09121
1652.90012,0.09542
1650.97142,0.09881
1649.04271,0.10222
1647.11401,0.10630
1645.18530,0.11051
1643.25660,0.11465
1641.32789,0.11909
1639.39919,0.12394
1637.47048,0.12904
1635.54178,0.13387
1633.61307,0.13796
1631.68437,0.14156
1629.75566,0.14505
1627.82696,0.14838
1625.89825,0.15148
1623.96955,0.15434
1622.04084,0.15693
1620.11214,0.15945
1618.18343,0.16212
1616.25473,0.16462
1614.32602,0.16673
1612.39732,0.16881
1610.46861,0.17101
1608.53991,0.17316
1606.61120,0.17507
1604.68250,0.17654
1602.75379,0.17728
1600.82509,0.17704
1598.89638,0.17582
1596.96768,0.17396
1595.03897,0.17199
1593.11027,0.17042
1591.18156,0.16950
1589.25286,0.16928
1587.32415,0.16968
1585.39545,0.17058
1583.46674,0.17187
1581.53804,0.17344
1579.60933,0.17529
1577.68063,0.17734
1575.75192,0.17912
1573.82322,0.18040
1571.89451,0.18169
1569.96581,0.18319
1568.03710,0.18467
1566.10840,0.18624
1564.17970,0.18824
1562.25099,0.19096
1560.32229,0.19429
1558.39358,0.19738
1556.46488,0.19992
1554.53617,0.20250
1552.60747,0.20532
1550.67876,0.20813
1548.75006,0.21078
1546.82135,0.21319
1544.89265,0.21531
1542.96394,0.21706
1541.03524,0.21822
1539.10653,0.21833
1537.17783,0.21751
1535.24912,0.21658
1533.32042,0.21578
1531.39171,0.21494
1529.46301,0.21428
1527.53430,0.21400
1525.60560,0.21397
1523.67689,0.21409
1521.74819,0.21408
1519.81948,0.21353
1517.89078,0.21252
1515.96207,0.21127
1514.03337,0.20990
1512.10466,0.20852
1510.17596,0.20732
1508.24725,0.20623
1506.31855,0.20461
1504.38984,0.20205
1502.46114,0.19914
1500.53243,0.19641
1498.60373,0.19385
1496.67502,0.19131
1494.74632,0.18889
1492.81761,0.18706
1490.88891,0.18609
1488.96020,0.18566
1487.03150,0.18548
1485.10279,0.18548
1483.17409,0.18560
1481.24538,0.18565
1479.31668,0.18555
1477.38797,0.18536
1475.45927,0.18514
1473.53056,0.18480
1471.60186,0.18424
1469.67315,0.18375
1467.74445,0.18388
1465.81574,0.18480
1463.88704,0.18635
1461.95833,0.18859
1460.02963,0.19184
1458.10092,0.19598
1456.17222,0.20034
1454.24351,0.20464
1452.31481,0.20930
1450.38610,0.21444
1448.45740,0.21967
1446.52869,0.22466
1444.59999,0.22929
1442.67128,0.23356
1440.74258,0.23750
1438.81387,0.24114
1436.88517,0.24431
1434.95646,0.24675
1433.02776,0.24866
1431.09906,0.25039
1429.17035,0.25197
1427.24165,0.25338
1425.31294,0.25471
1423.38424,0.25598
1421.45553,0.25718
1419.52683,0.25811
1417.59812,0.25843
1415.66942,0.25820
1413.74071,0.25762
1411.81201,0.25667
1409.88330,0.25531
1407.95460,0.25364
1406.02589,0.25176
1404.09719,0.24971
1402.16848,0.24750
1400.23978,0.24512
1398.31107,0.24246
1396.38237,0.23948
1394.45366,0.23616
1392.52496,0.23253
1390.59625,0.22881
1388.66755,0.22514
1386.73884,0.22144
1384.81014,0.21772
1382.88143,0.21421
1380.95273,0.21109
1379.02402,0.20840
1377.09532,0.20621
1375.16661,0.20459
1373.23791,0.20355
1371.30920,0.20317
1369.38050,0.20353
1367.45179,0.20466
1365.52309,0.20654
1363.59438,0.20911
1361.66568,0.21216
1359.73697,0.21554
1357.80827,0.21919
1355.87956,0.22305
1353.95086,0.22698
1352.02215,0.23081
1350.09345,0.23445
1348.16474,0.23776
1346.23604,0.24062
1344.30733,0.24295
1342.37863,0.24477
1340.44992,0.24609
1338.52122,0.24697
1336.59251,0.24751
1334.66381,0.24791
1332.73510,0.24833
1330.80640,0.24882
1328.87769,0.24935
1326.94899,0.24987
1325.02028,0.25025
1323.09158,0.25038
1321.16287,0.25017
1319.23417,0.24959
1317.30546,0.24870
1315.37676,0.24767
1313.44805,0.24672
1311.51935,0.24602
1309.59064,0.24553
1307.66194,0.24492
1305.73323,0.24375
1303.80453,0.24184
1301.87583,0.23931
1299.94712,0.23632
1298.01842,0.23304
1296.08971,0.22956
1294.16101,0.22601
1292.23230,0.22250
1290.30360,0.21916
1288.37489,0.21608
1286.44619,0.21333
1284.51748,0.21095
1282.58878,0.20894
1280.66007,0.20732
1278.73137,0.20607
1276.80266,0.20516
1274.87396,0.20454
1272.94525,0.20418
1271.01655,0.20409
1269.08784,0.20425
1267.15914,0.20459
1265.23043,0.20500
1263.30173,0.20537
1261.37302,0.20558
1259.44432,0.20550
1257.51561,0.20508
1255.58691,0.20437
1253.65820,0.20339
1251.72950,0.20215
1249.80079,0.20069
1247.87209,0.19908
1245.94338,0.19735
1244.01468,0.19549
1242.08597,0.19350
1240.15727,0.19142
1238.22856,0.18925
1236.29986,0.18699
1234.37115,0.18464
1232.44245,0.18224
1230.51374,0.17985
1228.58504,0.17747
1226.65633,0.17513
1224.72763,0.17285
1222.79892,0.17063
1220.87022,0.16850
1218.94151,0.16652
1217.01281,0.16472
1215.08410,0.16308
1213.15540,0.16159
1211.22669,0.16023
1209.29799,0.15901
1207.36928,0.15796
1205.44058,0.15713
1203.51187,0.15659
1201.58317,0.15633
1199.65446,0.15632
1197.72576,0.15651
1195.79705,0.15687
1193.86835,0.15736
1191.93964,0.15795
1190.01094,0.15857
1188.08223,0.15915
1186.15353,0.15960
1184.22482,0.15991
1182.29612,0.16009
1180.36741,0.16025
1178.43871,0.16048
1176.51000,0.16086
1174.58130,0.16134
1172.65260,0.16182
1170.72389,0.16216
1168.79519,0.16219
1166.86648,0.16181
1164.93778,0.16098
1163.00907,0.15975
1161.08037,0.15825
1159.15166,0.15659
1157.22296,0.15489
1155.29425,0.15321
1153.36555,0.15157
1151.43684,0.14997
1149.50814,0.14842
1147.57943,0.14693
1145.65073,0.14549
1143.72202,0.14413
1141.79332,0.14285
1139.86461,0.14164
1137.93591,0.14048
1136.00720,0.13937
1134.07850,0.13830
1132.14979,0.13728
1130.22109,0.13635
1128.29238,0.13553
1126.36368,0.13490
1124.43497,0.13462
1122.50627,0.13495
1120.57756,0.13613
1118.64886,0.13822
1116.72015,0.14090
1114.79145,0.14361
1112.86274,0.14595
1110.93404,0.14779
1109.00533,0.14894
1107.07663,0.14916
1105.14792,0.14843
1103.21922,0.14706
1101.29051,0.14542
1099.36181,0.14374
1097.43310,0.14212
1095.50440,0.14062
1093.57569,0.13927
1091.64699,0.13805
1089.71828,0.13693
1087.78958,0.13591
1085.86087,0.13497
1083.93217,0.13405
1082.00346,0.13313
1080.07476,0.13228
1078.14605,0.13148
1076.21735,0.13072
1074.28864,0.13000
1072.35994,0.12936
1070.43123,0.12875
1068.50253,0.12821
1066.57382,0.12778
1064.64512,0.12743
1062.71641,0.12712
1060.78771,0.12685
1058.85900,0.12665
1056.93030,0.12654
1055.00159,0.12651
1053.07289,0.12658
1051.14418,0.12678
1049.21548,0.12714
1047.28677,0.12768
1045.35807,0.12844
1043.42936,0.12944
1041.50066,0.13062
1039.57196,0.13187
1037.64325,0.13315
1035.71455,0.13447
1033.78584,0.13579
1031.85714,0.13707
1029.92843,0.13836
1027.99973,0.13968
1026.07102,0.14107
1024.14232,0.14252
1022.21361,0.14392
1020.28491,0.14520
1018.35620,0.14635
1016.42750,0.14734
1014.49879,0.14810
1012.57009,0.14856
1010.64138,0.14879
1008.71268,0.14887
1006.78397,0.14875
1004.85527,0.14834
1002.92656,0.14760
1000.99786,0.14654
999.06915,0.14516
997.14045,0.14357
995.21174,0.14193
993.28304,0.14032
991.35433,0.13887
989.42563,0.13764
987.49692,0.13662
985.56822,0.13573
983.63951,0.13490
981.71081,0.13400
979.78210,0.13290
977.85340,0.13154
975.92469,0.12997
973.99599,0.12829
972.06728,0.12658
970.13858,0.12495
968.20987,0.12344
966.28117,0.12210
964.35246,0.12093
962.42376,0.11991
960.49505,0.11901
958.56635,0.11818
956.63764,0.11738
954.70894,0.11653
952.78023,0.11563
950.85153,0.11469
948.92282,0.11373
946.99412,0.11279
945.06541,0.11190
943.13671,0.11103
941.20800,0.11020
939.27930,0.10940
937.35059,0.10863
935.42189,0.10786
933.49318,0.10709
931.56448,0.10634
929.63577,0.10564
927.70707,0.10499
925.77836,0.10435
923.84966,0.10375
921.92095,0.10318
919.99225,0.10262
918.06354,0.10204
916.13484,0.10148
914.20613,0.10096
912.27743,0.10044
910.34873,0.09992
908.42002,0.09942
906.49132,0.09898
904.56261,0.09858
902.63391,0.09820
900.70520,0.09781
898.77650,0.09739
896.84779,0.09697
894.91909,0.09660
892.99038,0.09629
891.06168,0.09598
889.13297,0.09564
887.20427,0.09528
885.27556,0.09495
883.34686,0.09465
881.41815,0.09442
879.48945,0.09425
877.56074,0.09408
875.63204,0.09387
873.70333,0.09368
871.77463,0.09353
869.84592,0.09343
867.91722,0.09331
865.98851,0.09316
864.05981,0.09307
862.13110,0.09305
860.20240,0.09305
858.27369,0.09306
856.34499,0.09311
854.41628,0.09322
852.48758,0.09339
850.55887,0.09357
848.63017,0.09374
846.70146,0.09394
844.77276,0.09416
842.84405,0.09439
840.91535,0.09465
838.98664,0.09496
837.05794,0.09538
835.12923,0.09607
833.20053,0.09714
831.27182,0.09864
829.34312,0.10078
827.41441,0.10391
825.48571,0.10849
823.55700,0.11513
821.62830,0.12425
819.69959,0.13582
817.77089,0.14930
815.84218,0.16416
813.91348,0.18012
811.98477,0.19625
810.05607,0.21005
808.12736,0.21811
806.19866,0.21879
804.26995,0.21489
802.34125,0.21164
800.41254,0.21092
798.48384,0.20904
796.55513,0.20219
794.62643,0.19172
792.69772,0.18154
790.76902,0.17368
788.84031,0.16795
786.91161,0.16363
784.98290,0.16022
783.05420,0.15748
781.12550,0.15535
779.19679,0.15378
777.26809,0.15269
775.33938,0.15208
773.41068,0.15189
771.48197,0.15166
769.55327,0.15104
767.62456,0.15024
765.69586,0.14965
763.76715,0.14947
761.83845,0.14968
759.90974,0.15023
757.98104,0.15102
756.05233,0.15188
754.12363,0.15255
752.19492,0.15275
750.26622,0.15234
748.33751,0.15167
746.40881,0.15123
744.48010,0.15123
742.55140,0.15162
740.62269,0.15223
738.69399,0.15297
736.76528,0.15378
734.83658,0.15462
732.90787,0.15550
730.97917,0.15645
729.05046,0.15745
727.12176,0.15846
725.19305,0.15945
723.26435,0.16040
721.33564,0.16134
719.40694,0.16227
717.47823,0.16320
715.54953,0.16415
713.62082,0.16512
711.69212,0.16607
709.76341,0.16702
707.83471,0.16800
705.90600,0.16888
703.97730,0.16957
702.04859,0.17015
700.11989,0.17078
698.19118,0.17150
696.26248,0.17224
694.33377,0.17291
692.40507,0.17355
690.47636,0.17427
688.54766,0.17502
686.61895,0.17570
684.69025,0.17632
682.76154,0.17694
680.83284,0.17751
678.90413,0.17805
676.97543,0.17862
675.04672,0.17919
673.11802,0.17982
671.18931,0.18124
669.26061,0.18360
667.33190,0.18473
665.40320,0.18368
663.47449,0.18271
661.54579,0.18299
659.61708,0.18370
657.68838,0.18430
655.75967,0.18466
653.83097,0.18488
651.90226,0.18506
649.97356,0.18526
648.04486,0.18553
646.11615,0.18585
644.18745,0.18615
642.25874,0.18634
640.33004,0.18660
638.40133,0.18711
636.47263,0.18777
634.54392,0.18845
632.61522,0.18910
630.68651,0.18980
628.75781,0.19045
626.82910,0.19106
624.90040,0.19181
622.97169,0.19243
621.04299,0.19276
619.11428,0.19368
617.18558,0.19529
615.25687,0.19655
613.32817,0.19761
611.39946,0.19880
609.47076,0.19930
607.54205,0.19846
605.61335,0.19706
603.68464,0.19598
601.75594,0.19507
599.82723,0.19454
597.89853,0.19514
595.96982,0.19672
594.04112,0.19865
592.11241,0.20114
590.18371,0.20431
588.25500,0.20643
586.32630,0.20623
584.39759,0.20491
582.46889,0.20347
580.54018,0.20158
578.61148,0.19828
576.68277,0.19349
574.75407,0.19037
572.82536,0.19127
570.89666,0.19362
568.96795,0.19449
567.03925,0.19385
565.11054,0.19226
563.18184,0.19037
561.25313,0.18940
559.32443,0.18937
557.39572,0.18958
555.46702,0.18926
553.53831,0.18712
551.60961,0.18445
549.68090,0.18424
547.75220,0.18710
545.82349,0.19047
543.89479,0.19035
541.96608,0.18661
540.03738,0.18379
538.10867,0.18399
536.17997,0.18354
534.25126,0.17960
532.32256,0.17503
530.39385,0.17428
528.46515,0.17602
526.53644,0.17195
524.60774,0.15849
522.67903,0.14291
520.75033,0.13573
518.82163,0.14564
516.89292,0.16054
514.96422,0.15452
