4497.73989,0.02178
4495.81118,0.02175
4493.88248,0.02176
4491.95377,0.02180
4490.02507,0.02184
4488.09636,0.02182
4486.16766,0.02178
4484.23895,0.02174
4482.31025,0.02170
4480.38154,0.02167
4478.45284,0.02163
4476.52413,0.02159
4474.59543,0.02156
4472.66672,0.02153
4470.73802,0.02150
4468.80931,0.02150
4466.88061,0.02149
4464.95190,0.02145
4463.02320,0.02140
4461.09449,0.02137
4459.16579,0.02138
4457.23708,0.02137
4455.30838,0.02132
4453.37967,0.02126
4451.45097,0.02123
4449.52226,0.02122
4447.59356,0.02123
4445.66485,0.02123
4443.73615,0.02123
4441.80744,0.02123
4439.87874,0.02122
4437.95003,0.02121
4436.02133,0.02121
4434.09262,0.02120
4432.16392,0.02115
4430.23522,0.02110
4428.30651,0.02108
4426.37781,0.02109
4424.44910,0.02108
4422.52040,0.02107
4420.59169,0.02108
4418.66299,0.02109
4416.73428,0.02109
4414.80558,0.02107
4412.87687,0.02102
4410.94817,0.02099
4409.01946,0.02099
4407.09076,0.02101
4405.16205,0.02101
4403.23335,0.02099
4401.30464,0.02099
4399.37594,0.02098
4397.44723,0.02094
4395.51853,0.02089
4393.58982,0.02083
4391.66112,0.02078
4389.73241,0.02075
4387.80371,0.02078
4385.87500,0.02082
4383.94630,0.02084
4382.01759,0.02082
4380.08889,0.02079
4378.16018,0.02074
4376.23148,0.02071
4374.30277,0.02069
4372.37407,0.02070
4370.44536,0.02070
4368.51666,0.02069
4366.58795,0.02070
4364.65925,0.02072
4362.73054,0.02069
4360.80184,0.02063
4358.87313,0.02062
4356.94443,0.02062
4355.01572,0.02060
4353.08702,0.02058
4351.15831,0.02059
4349.22961,0.02059
4347.30090,0.02060
4345.37220,0.02060
4343.44349,0.02057
4341.51479,0.02054
4339.58608,0.02052
4337.65738,0.02052
4335.72867,0.02053
4333.79997,0.02054
4331.87126,0.02053
4329.94256,0.02052
4328.01385,0.02051
4326.08515,0.02050
4324.15644,0.02045
4322.22774,0.02037
4320.29903,0.02031
4318.37033,0.02031
4316.44162,0.02036
4314.51292,0.02040
4312.58421,0.02040
4310.65551,0.02039
4308.72680,0.02040
4306.79810,0.02041
4304.86939,0.02041
4302.94069,0.02038
4301.01199,0.02034
4299.08328,0.02031
4297.15458,0.02031
4295.22587,0.02032
4293.29717,0.02033
4291.36846,0.02032
4289.43976,0.02030
4287.51105,0.02028
4285.58235,0.02025
4283.65364,0.02021
4281.72494,0.02016
4279.79623,0.02013
4277.86753,0.02013
4275.93882,0.02013
4274.01012,0.02009
4272.08141,0.02006
4270.15271,0.02008
4268.22400,0.02009
4266.29530,0.02008
4264.36659,0.02008
4262.43789,0.02008
4260.50918,0.02005
4258.58048,0.02001
4256.65177,0.01998
4254.72307,0.01998
4252.79436,0.01999
4250.86566,0.01998
4248.93695,0.01994
4247.00825,0.01992
4245.07954,0.01993
4243.15084,0.01996
4241.22213,0.01994
4239.29343,0.01989
4237.36472,0.01987
4235.43602,0.01986
4233.50731,0.01987
4231.57861,0.01990
4229.64990,0.01990
4227.72120,0.01989
4225.79249,0.01986
4223.86379,0.01982
4221.93508,0.01977
4220.00638,0.01975
4218.07767,0.01976
4216.14897,0.01976
4214.22026,0.01975
4212.29156,0.01976
4210.36285,0.01977
4208.43415,0.01975
4206.50544,0.01970
4204.57674,0.01967
4202.64803,0.01967
4200.71933,0.01968
4198.79062,0.01968
4196.86192,0.01966
4194.93321,0.01963
4193.00451,0.01960
4191.07580,0.01959
4189.14710,0.01959
4187.21839,0.01959
4185.28969,0.01958
4183.36098,0.01955
4181.43228,0.01953
4179.50357,0.01951
4177.57487,0.01951
4175.64616,0.01951
4173.71746,0.01951
4171.78875,0.01952
4169.86005,0.01952
4167.93135,0.01951
4166.00264,0.01948
4164.07394,0.01944
4162.14523,0.01941
4160.21653,0.01939
4158.28782,0.01939
4156.35912,0.01941
4154.43041,0.01940
4152.50171,0.01936
4150.57300,0.01936
4148.64430,0.01938
4146.71559,0.01938
4144.78689,0.01937
4142.85818,0.01933
4140.92948,0.01930
4139.00077,0.01929
4137.07207,0.01928
4135.14336,0.01925
4133.21466,0.01924
4131.28595,0.01923
4129.35725,0.01922
4127.42854,0.01921
4125.49984,0.01921
4123.57113,0.01921
4121.64243,0.01923
4119.71372,0.01925
4117.78502,0.01925
4115.85631,0.01923
4113.92761,0.01920
4111.99890,0.01918
4110.07020,0.01916
4108.14149,0.01916
4106.21279,0.01916
4104.28408,0.01916
4102.35538,0.01917
4100.42667,0.01917
4098.49797,0.01917
4096.56926,0.01914
4094.64056,0.01911
4092.71185,0.01909
4090.78315,0.01907
4088.85444,0.01907
4086.92574,0.01907
4084.99703,0.01905
4083.06833,0.01903
4081.13962,0.01902
4079.21092,0.01900
4077.28221,0.01899
4075.35351,0.01898
4073.42480,0.01897
4071.49610,0.01895
4069.56739,0.01893
4067.63869,0.01890
4065.70998,0.01887
4063.78128,0.01887
4061.85257,0.01884
4059.92387,0.01880
4057.99516,0.01877
4056.06646,0.01877
4054.13775,0.01877
4052.20905,0.01875
4050.28034,0.01873
4048.35164,0.01872
4046.42293,0.01869
4044.49423,0.01866
4042.56552,0.01865
4040.63682,0.01867
4038.70812,0.01867
4036.77941,0.01864
4034.85071,0.01862
4032.92200,0.01864
4030.99330,0.01864
4029.06459,0.01862
4027.13589,0.01857
4025.20718,0.01854
4023.27848,0.01853
4021.34977,0.01854
4019.42107,0.01852
4017.49236,0.01847
4015.56366,0.01843
4013.63495,0.01842
4011.70625,0.01843
4009.77754,0.01841
4007.84884,0.01840
4005.92013,0.01842
4003.99143,0.01842
4002.06272,0.01840
4000.13402,0.01838
3998.20531,0.01836
3996.27661,0.01832
3994.34790,0.01826
3992.41920,0.01823
3990.49049,0.01824
3988.56179,0.01826
3986.63308,0.01825
3984.70438,0.01822
3982.77567,0.01820
3980.84697,0.01820
3978.91826,0.01818
3976.98956,0.01813
3975.06085,0.01810
3973.13215,0.01811
3971.20344,0.01812
3969.27474,0.01813
3967.34603,0.01815
3965.41733,0.01813
3963.48862,0.01808
3961.55992,0.01805
3959.63121,0.01807
3957.70251,0.01807
3955.77380,0.01806
3953.84510,0.01801
3951.91639,0.01791
3949.98769,0.01781
3948.05898,0.01782
3946.13028,0.01788
3944.20157,0.01784
3942.27287,0.01782
3940.34416,0.01791
3938.41546,0.01800
3936.48675,0.01797
3934.55805,0.01777
3932.62934,0.01754
3930.70064,0.01753
3928.77193,0.01766
3926.84323,0.01765
3924.91452,0.01756
3922.98582,0.01753
3921.05711,0.01745
3919.12841,0.01724
3917.19970,0.01717
3915.27100,0.01738
3913.34229,0.01766
3911.41359,0.01777
3909.48489,0.01768
3907.55618,0.01724
3905.62748,0.01645
3903.69877,0.01582
3901.77007,0.01571
3899.84136,0.01607
3897.91266,0.01673
3895.98395,0.01721
3894.05525,0.01701
3892.12654,0.01656
3890.19784,0.01652
3888.26913,0.01647
3886.34043,0.01610
3884.41172,0.01611
3882.48302,0.01637
3880.55431,0.01649
3878.62561,0.01675
3876.69690,0.01689
3874.76820,0.01657
3872.83949,0.01594
3870.91079,0.01527
3868.98208,0.01525
3867.05338,0.01565
3865.12467,0.01578
3863.19597,0.01596
3861.26726,0.01639
3859.33856,0.01653
3857.40985,0.01541
3855.48115,0.01296
3853.55244,0.01158
3851.62374,0.01312
3849.69503,0.01552
3847.76633,0.01667
3845.83762,0.01665
3843.90892,0.01619
3841.98021,0.01555
3840.05151,0.01458
3838.12280,0.01389
3836.19410,0.01428
3834.26539,0.01511
3832.33669,0.01564
3830.40798,0.01599
3828.47928,0.01620
3826.55057,0.01614
3824.62187,0.01570
3822.69316,0.01482
3820.76446,0.01434
3818.83575,0.01435
3816.90705,0.01419
3814.97834,0.01464
3813.04964,0.01579
3811.12093,0.01627
3809.19223,0.01563
3807.26352,0.01489
3805.33482,0.01472
3803.40611,0.01431
3801.47741,0.01388
3799.54870,0.01446
3797.62000,0.01531
3795.69129,0.01577
3793.76259,0.01613
3791.83388,0.01635
3789.90518,0.01637
3787.97647,0.01628
3786.04777,0.01614
3784.11906,0.01603
3782.19036,0.01589
3780.26166,0.01570
3778.33295,0.01575
3776.40425,0.01603
3774.47554,0.01610
3772.54684,0.01573
3770.61813,0.01524
3768.68943,0.01512
3766.76072,0.01530
3764.83202,0.01550
3762.90331,0.01555
3760.97461,0.01527
3759.04590,0.01502
3757.11720,0.01498
3755.18849,0.01437
3753.25979,0.01282
3751.33108,0.01154
3749.40238,0.01168
3747.47367,0.01196
3745.54497,0.01140
3743.61626,0.01182
3741.68756,0.01361
3739.75885,0.01440
3737.83015,0.01366
3735.90144,0.01289
3733.97274,0.01293
3732.04403,0.01364
3730.11533,0.01449
3728.18662,0.01484
3726.25792,0.01470
3724.32921,0.01463
3722.40051,0.01473
3720.47180,0.01490
3718.54310,0.01506
3716.61439,0.01494
3714.68569,0.01422
3712.75698,0.01327
3710.82828,0.01312
3708.89957,0.01388
3706.97087,0.01464
3705.04216,0.01480
3703.11346,0.01451
3701.18475,0.01442
3699.25605,0.01469
3697.32734,0.01488
3695.39864,0.01473
3693.46993,0.01413
3691.54123,0.01300
3689.61252,0.01200
3687.68382,0.01226
3685.75511,0.01348
3683.82641,0.01424
3681.89770,0.01417
3679.96900,0.01351
3678.04029,0.01217
3676.11159,0.01094
3674.18288,0.01096
3672.25418,0.01128
3670.32547,0.01136
3668.39677,0.01215
3666.46806,0.01328
3664.53936,0.01379
3662.61065,0.01381
3660.68195,0.01358
3658.75324,0.01301
3656.82454,0.01240
3654.89583,0.01226
3652.96713,0.01184
3651.03842,0.01068
3649.10972,0.01007
3647.18102,0.01091
3645.25231,0.01221
3643.32361,0.01291
3641.39490,0.01301
3639.46620,0.01294
3637.53749,0.01282
3635.60879,0.01262
3633.68008,0.01220
3631.75138,0.01117
3629.82267,0.00999
3627.89397,0.01014
3625.96526,0.01139
3624.03656,0.01206
3622.10785,0.01168
3620.17915,0.01099
3618.25044,0.01083
3616.32174,0.01105
3614.39303,0.01100
3612.46433,0.01072
3610.53562,0.01047
3608.60692,0.01051
3606.67821,0.01092
3604.74951,0.01132
3602.82080,0.01135
3600.89210,0.01121
3598.96339,0.01110
3597.03469,0.01093
3595.10598,0.01077
3593.17728,0.01070
3591.24857,0.01047
3589.31987,0.00995
3587.39116,0.00968
3585.46246,0.00998
3583.53375,0.01037
3581.60505,0.01048
3579.67634,0.01041
3577.74764,0.01034
3575.81893,0.01028
3573.89023,0.01020
3571.96152,0.00999
3570.03282,0.00947
3568.10411,0.00890
3566.17541,0.00882
3564.24670,0.00920
3562.31800,0.00947
3560.38929,0.00953
3558.46059,0.00954
3556.53188,0.00950
3554.60318,0.00936
3552.67447,0.00919
3550.74577,0.00908
3548.81706,0.00895
3546.88836,0.00876
3544.95965,0.00872
3543.03095,0.00883
3541.10224,0.00892
3539.17354,0.00890
3537.24483,0.00883
3535.31613,0.00881
3533.38742,0.00879
3531.45872,0.00870
3529.53001,0.00857
3527.60131,0.00849
3525.67260,0.00847
3523.74390,0.00851
3521.81519,0.00861
3519.88649,0.00872
3517.95779,0.00877
3516.02908,0.00882
3514.10038,0.00888
3512.17167,0.00893
3510.24297,0.00898
3508.31426,0.00905
3506.38556,0.00913
3504.45685,0.00919
3502.52815,0.00932
3500.59944,0.00955
3498.67074,0.00975
3496.74203,0.00993
3494.81333,0.01016
3492.88462,0.01042
3490.95592,0.01068
3489.02721,0.01095
3487.09851,0.01129
3485.16980,0.01168
3483.24110,0.01211
3481.31239,0.01260
3479.38369,0.01320
3477.45498,0.01385
3475.52628,0.01455
3473.59757,0.01530
3471.66887,0.01612
3469.74016,0.01699
3467.81146,0.01795
3465.88275,0.01902
3463.95405,0.02018
3462.02534,0.02147
3460.09664,0.02291
3458.16793,0.02455
3456.23923,0.02643
3454.31052,0.02860
3452.38182,0.03107
3450.45311,0.03388
3448.52441,0.03709
3446.59570,0.04079
3444.66700,0.04498
3442.73829,0.04952
3440.80959,0.05431
3438.88088,0.05921
3436.95218,0.06407
3435.02347,0.06878
3433.09477,0.07323
3431.16606,0.07722
3429.23736,0.08067
3427.30865,0.08355
3425.37995,0.08579
3423.45124,0.08732
3421.52254,0.08820
3419.59383,0.08851
3417.66513,0.08838
3415.73642,0.08789
3413.80772,0.08715
3411.87901,0.08627
3409.95031,0.08537
3408.02160,0.08455
3406.09290,0.08391
3404.16419,0.08349
3402.23549,0.08334
3400.30678,0.08354
3398.37808,0.08411
3396.44937,0.08510
3394.52067,0.08651
3392.59196,0.08833
3390.66326,0.09052
3388.73456,0.09301
3386.80585,0.09571
3384.87715,0.09850
3382.94844,0.10126
3381.01974,0.10386
3379.09103,0.10615
3377.16233,0.10806
3375.23362,0.10952
3373.30492,0.11048
3371.37621,0.11093
3369.44751,0.11093
3367.51880,0.11054
3365.59010,0.10983
3363.66139,0.10893
3361.73269,0.10789
3359.80398,0.10684
3357.87528,0.10589
3355.94657,0.10520
3354.01787,0.10488
3352.08916,0.10504
3350.16046,0.10574
3348.23175,0.10707
3346.30305,0.10905
3344.37434,0.11157
3342.44564,0.11451
3340.51693,0.11774
3338.58823,0.12108
3336.65952,0.12426
3334.73082,0.12705
3332.80211,0.12918
3330.87341,0.13041
3328.94470,0.13066
3327.01600,0.13002
3325.08729,0.12866
3323.15859,0.12676
3321.22988,0.12456
3319.30118,0.12221
3317.37247,0.11987
3315.44377,0.11766
3313.51506,0.11560
3311.58636,0.11371
3309.65765,0.11194
3307.72895,0.11025
3305.80024,0.10863
3303.87154,0.10708
3301.94283,0.10554
3300.01413,0.10397
3298.08542,0.10240
3296.15672,0.10083
3294.22801,0.09927
3292.29931,0.09773
3290.37060,0.09627
3288.44190,0.09486
3286.51319,0.09348
3284.58449,0.09209
3282.65578,0.09067
3280.72708,0.08921
3278.79837,0.08774
3276.86967,0.08631
3274.94096,0.08493
3273.01226,0.08357
3271.08355,0.08231
3269.15485,0.08123
3267.22614,0.08031
3265.29744,0.07955
3263.36873,0.07902
3261.44003,0.07882
3259.51132,0.07900
3257.58262,0.07953
3255.65392,0.08038
3253.72521,0.08151
3251.79651,0.08283
3249.86780,0.08411
3247.93910,0.08517
3246.01039,0.08592
3244.08169,0.08638
3242.15298,0.08659
3240.22428,0.08659
3238.29557,0.08644
3236.36687,0.08620
3234.43816,0.08594
3232.50946,0.08576
3230.58075,0.08570
3228.65205,0.08575
3226.72334,0.08593
3224.79464,0.08628
3222.86593,0.08682
3220.93723,0.08752
3219.00852,0.08840
3217.07982,0.08949
3215.15111,0.09073
3213.22241,0.09210
3211.29370,0.09364
3209.36500,0.09536
3207.43629,0.09722
3205.50759,0.09916
3203.57888,0.10116
3201.65018,0.10318
3199.72147,0.10522
3197.79277,0.10727
3195.86406,0.10934
3193.93536,0.11144
3192.00665,0.11357
3190.07795,0.11562
3188.14924,0.11747
3186.22054,0.11901
3184.29183,0.12016
3182.36313,0.12086
3180.43442,0.12117
3178.50572,0.12125
3176.57701,0.12126
3174.64831,0.12128
3172.71960,0.12139
3170.79090,0.12167
3168.86219,0.12220
3166.93349,0.12307
3165.00478,0.12427
3163.07608,0.12578
3161.14737,0.12756
3159.21867,0.12954
3157.28996,0.13164
3155.36126,0.13380
3153.43255,0.13589
3151.50385,0.13785
3149.57514,0.13959
3147.64644,0.14099
3145.71773,0.14195
3143.78903,0.14241
3141.86032,0.14237
3139.93162,0.14186
3138.00291,0.14092
3136.07421,0.13960
3134.14550,0.13794
3132.21680,0.13600
3130.28809,0.13385
3128.35939,0.13152
3126.43069,0.12903
3124.50198,0.12644
3122.57328,0.12380
3120.64457,0.12114
3118.71587,0.11848
3116.78716,0.11586
3114.85846,0.11330
3112.92975,0.11081
3111.00105,0.10839
3109.07234,0.10603
3107.14364,0.10378
3105.21493,0.10165
3103.28623,0.09962
3101.35752,0.09771
3099.42882,0.09595
3097.50011,0.09432
3095.57141,0.09285
3093.64270,0.09156
3091.71400,0.09045
3089.78529,0.08947
3087.85659,0.08862
3085.92788,0.08780
3083.99918,0.08692
3082.07047,0.08588
3080.14177,0.08465
3078.21306,0.08330
3076.28436,0.08193
3074.35565,0.08059
3072.42695,0.07928
3070.49824,0.07800
3068.56954,0.07678
3066.64083,0.07562
3064.71213,0.07452
3062.78342,0.07349
3060.85472,0.07250
3058.92601,0.07155
3056.99731,0.07063
3055.06860,0.06976
3053.13990,0.06894
3051.21119,0.06816
3049.28249,0.06743
3047.35378,0.06674
3045.42508,0.06609
3043.49637,0.06546
3041.56767,0.06485
3039.63896,0.06429
3037.71026,0.06373
3035.78155,0.06315
3033.85285,0.06259
3031.92414,0.06207
3029.99544,0.06160
3028.06673,0.06117
3026.13803,0.06075
3024.20932,0.06031
3022.28062,0.05986
3020.35191,0.05940
3018.42321,0.05891
3016.49450,0.05840
3014.56580,0.05787
3012.63709,0.05736
3010.70839,0.05689
3008.77968,0.05644
3006.85098,0.05598
3004.92227,0.05550
3002.99357,0.05502
3001.06486,0.05453
2999.13616,0.05405
2997.20746,0.05360
2995.27875,0.05317
2993.35005,0.05271
2991.42134,0.05227
2989.49264,0.05185
2987.56393,0.05144
2985.63523,0.05102
2983.70652,0.05058
2981.77782,0.05013
2979.84911,0.04969
2977.92041,0.04927
2975.99170,0.04885
2974.06300,0.04842
2972.13429,0.04798
2970.20559,0.04755
2968.27688,0.04714
2966.34818,0.04674
2964.41947,0.04632
2962.49077,0.04593
2960.56206,0.04558
2958.63336,0.04527
2956.70465,0.04500
2954.77595,0.04475
2952.84724,0.04455
2950.91854,0.04439
2948.98983,0.04428
2947.06113,0.04419
2945.13242,0.04414
2943.20372,0.04412
2941.27501,0.04410
2939.34631,0.04409
2937.41760,0.04409
2935.48890,0.04408
2933.56019,0.04404
2931.63149,0.04396
2929.70278,0.04389
2927.77408,0.04385
2925.84537,0.04385
2923.91667,0.04385
2921.98796,0.04386
2920.05926,0.04387
2918.13055,0.04390
2916.20185,0.04401
2914.27314,0.04422
2912.34444,0.04447
2910.41573,0.04462
2908.48703,0.04459
2906.55832,0.04444
2904.62962,0.04419
2902.70091,0.04382
2900.77221,0.04339
2898.84350,0.04293
2896.91480,0.04245
2894.98609,0.04195
2893.05739,0.04142
2891.12868,0.04091
2889.19998,0.04043
2887.27127,0.03997
2885.34257,0.03953
2883.41386,0.03909
2881.48516,0.03868
2879.55645,0.03830
2877.62775,0.03796
2875.69904,0.03764
2873.77034,0.03733
2871.84163,0.03706
2869.91293,0.03681
2867.98422,0.03658
2866.05552,0.03635
2864.12682,0.03612
2862.19811,0.03588
2860.26941,0.03566
2858.34070,0.03545
2856.41200,0.03521
2854.48329,0.03492
2852.55459,0.03462
2850.62588,0.03437
2848.69718,0.03427
2846.76847,0.03435
2844.83977,0.03451
2842.91106,0.03462
2840.98236,0.03466
2839.05365,0.03466
2837.12495,0.03464
2835.19624,0.03460
2833.26754,0.03456
2831.33883,0.03452
2829.41013,0.03446
2827.48142,0.03440
2825.55272,0.03432
2823.62401,0.03424
2821.69531,0.03416
2819.76660,0.03407
2817.83790,0.03397
2815.90919,0.03387
2813.98049,0.03379
2812.05178,0.03372
2810.12308,0.03366
2808.19437,0.03361
2806.26567,0.03356
2804.33696,0.03354
2802.40826,0.03355
2800.47955,0.03356
2798.55085,0.03359
2796.62214,0.03365
2794.69344,0.03374
2792.76473,0.03386
2790.83603,0.03399
2788.90732,0.03414
2786.97862,0.03431
2785.04991,0.03451
2783.12121,0.03474
2781.19250,0.03500
2779.26380,0.03529
2777.33509,0.03559
2775.40639,0.03591
2773.47768,0.03626
2771.54898,0.03662
2769.62027,0.03697
2767.69157,0.03731
2765.76286,0.03764
2763.83416,0.03794
2761.90545,0.03820
2759.97675,0.03843
2758.04804,0.03862
2756.11934,0.03875
2754.19063,0.03885
2752.26193,0.03892
2750.33322,0.03896
2748.40452,0.03896
2746.47581,0.03894
2744.54711,0.03890
2742.61840,0.03882
2740.68970,0.03872
2738.76099,0.03859
2736.83229,0.03842
2734.90359,0.03824
2732.97488,0.03805
2731.04618,0.03784
2729.11747,0.03761
2727.18877,0.03736
2725.26006,0.03709
2723.33136,0.03680
2721.40265,0.03652
2719.47395,0.03624
2717.54524,0.03594
2715.61654,0.03563
2713.68783,0.03534
2711.75913,0.03505
2709.83042,0.03476
2707.90172,0.03448
2705.97301,0.03422
2704.04431,0.03395
2702.11560,0.03366
2700.18690,0.03337
2698.25819,0.03309
2696.32949,0.03281
2694.40078,0.03252
2692.47208,0.03224
2690.54337,0.03197
2688.61467,0.03171
2686.68596,0.03147
2684.75726,0.03125
2682.82855,0.03106
2680.89985,0.03088
2678.97114,0.03073
2677.04244,0.03058
2675.11373,0.03044
2673.18503,0.03032
2671.25632,0.03021
2669.32762,0.03011
2667.39891,0.03005
2665.47021,0.03005
2663.54150,0.03009
2661.61280,0.03015
2659.68409,0.03022
2657.75539,0.03028
2655.82668,0.03032
2653.89798,0.03030
2651.96927,0.03020
2650.04057,0.03003
2648.11186,0.02984
2646.18316,0.02965
2644.25445,0.02949
2642.32575,0.02937
2640.39704,0.02928
2638.46834,0.02921
2636.53963,0.02913
2634.61093,0.02906
2632.68222,0.02899
2630.75352,0.02891
2628.82481,0.02882
2626.89611,0.02875
2624.96740,0.02869
2623.03870,0.02864
2621.10999,0.02861
2619.18129,0.02863
2617.25258,0.02868
2615.32388,0.02878
2613.39517,0.02889
2611.46647,0.02900
2609.53776,0.02909
2607.60906,0.02915
2605.68036,0.02920
2603.75165,0.02922
2601.82295,0.02925
2599.89424,0.02930
2597.96554,0.02936
2596.03683,0.02938
2594.10813,0.02936
2592.17942,0.02931
2590.25072,0.02926
2588.32201,0.02920
2586.39331,0.02909
2584.46460,0.02894
2582.53590,0.02881
2580.60719,0.02870
2578.67849,0.02860
2576.74978,0.02851
2574.82108,0.02840
2572.89237,0.02827
2570.96367,0.02813
2569.03496,0.02796
2567.10626,0.02775
2565.17755,0.02753
2563.24885,0.02730
2561.32014,0.02710
2559.39144,0.02691
2557.46273,0.02672
2555.53403,0.02652
2553.60532,0.02634
2551.67662,0.02617
2549.74791,0.02604
2547.81921,0.02593
2545.89050,0.02583
2543.96180,0.02572
2542.03309,0.02562
2540.10439,0.02553
2538.17568,0.02547
2536.24698,0.02544
2534.31827,0.02542
2532.38957,0.02543
2530.46086,0.02549
2528.53216,0.02558
2526.60345,0.02571
2524.67475,0.02586
2522.74604,0.02602
2520.81734,0.02620
2518.88863,0.02639
2516.95993,0.02654
2515.03122,0.02664
2513.10252,0.02668
2511.17381,0.02669
2509.24511,0.02667
2507.31640,0.02662
2505.38770,0.02658
2503.45899,0.02658
2501.53029,0.02663
2499.60158,0.02674
2497.67288,0.02691
2495.74417,0.02715
2493.81547,0.02742
2491.88676,0.02769
2489.95806,0.02786
2488.02935,0.02792
2486.10065,0.02789
2484.17194,0.02786
2482.24324,0.02788
2480.31453,0.02800
2478.38583,0.02821
2476.45713,0.02848
2474.52842,0.02879
2472.59972,0.02910
2470.67101,0.02936
2468.74231,0.02954
2466.81360,0.02958
2464.88490,0.02942
2462.95619,0.02911
2461.02749,0.02871
2459.09878,0.02830
2457.17008,0.02792
2455.24137,0.02756
2453.31267,0.02719
2451.38396,0.02683
2449.45526,0.02653
2447.52655,0.02628
2445.59785,0.02604
2443.66914,0.02577
2441.74044,0.02547
2439.81173,0.02514
2437.88303,0.02478
2435.95432,0.02441
2434.02562,0.02405
2432.09691,0.02373
2430.16821,0.02344
2428.23950,0.02315
2426.31080,0.02287
2424.38209,0.02260
2422.45339,0.02236
2420.52468,0.02212
2418.59598,0.02192
2416.66727,0.02174
2414.73857,0.02158
2412.80986,0.02144
2410.88116,0.02132
2408.95245,0.02117
2407.02375,0.02096
2405.09504,0.02077
2403.16634,0.02067
2401.23763,0.02059
2399.30893,0.02050
2397.38022,0.02042
2395.45152,0.02036
2393.52281,0.02035
2391.59411,0.02039
2389.66540,0.02048
2387.73670,0.02059
2385.80799,0.02075
2383.87929,0.02100
2381.95058,0.02136
2380.02188,0.02186
2378.09317,0.02251
2376.16447,0.02330
2374.23576,0.02421
2372.30706,0.02520
2370.37835,0.02620
2368.44965,0.02715
2366.52094,0.02797
2364.59224,0.02860
2362.66353,0.02897
2360.73483,0.02901
2358.80612,0.02865
2356.87742,0.02788
2354.94871,0.02673
2353.02001,0.02531
2351.09130,0.02387
2349.16260,0.02288
2347.23389,0.02258
2345.30519,0.02270
2343.37649,0.02284
2341.44778,0.02284
2339.51908,0.02269
2337.59037,0.02246
2335.66167,0.02216
2333.73296,0.02180
2331.80426,0.02139
2329.87555,0.02096
2327.94685,0.02071
2326.01814,0.02083
2324.08944,0.02097
2322.16073,0.02063
2320.23203,0.01993
2318.30332,0.01927
2316.37462,0.01875
2314.44591,0.01832
2312.51721,0.01794
2310.58850,0.01761
2308.65980,0.01735
2306.73109,0.01712
2304.80239,0.01690
2302.87368,0.01672
2300.94498,0.01657
2299.01627,0.01647
2297.08757,0.01641
2295.15886,0.01640
2293.23016,0.01644
2291.30145,0.01653
2289.37275,0.01663
2287.44404,0.01675
2285.51534,0.01681
2283.58663,0.01678
2281.65793,0.01671
2279.72922,0.01667
2277.80052,0.01668
2275.87181,0.01676
2273.94311,0.01690
2272.01440,0.01706
2270.08570,0.01721
2268.15699,0.01727
2266.22829,0.01717
2264.29958,0.01702
2262.37088,0.01692
2260.44217,0.01691
2258.51347,0.01689
2256.58476,0.01676
2254.65606,0.01648
2252.72735,0.01624
2250.79865,0.01623
2248.86994,0.01637
2246.94124,0.01658
2245.01253,0.01686
2243.08383,0.01723
2241.15512,0.01765
2239.22642,0.01816
2237.29771,0.01880
2235.36901,0.01963
2233.44030,0.02072
2231.51160,0.02221
2229.58289,0.02425
2227.65419,0.02703
2225.72548,0.03085
2223.79678,0.03618
2221.86807,0.04354
2219.93937,0.05329
2218.01066,0.06549
2216.08196,0.07965
2214.15326,0.09470
2212.22455,0.10910
2210.29585,0.12118
2208.36714,0.12990
2206.43844,0.13510
2204.50973,0.13722
2202.58103,0.13690
2200.65232,0.13466
2198.72362,0.13093
2196.79491,0.12615
2194.86621,0.12071
2192.93750,0.11493
2191.00880,0.10902
2189.08009,0.10322
2187.15139,0.09793
2185.22268,0.09356
2183.29398,0.09043
2181.36527,0.08923
2179.43657,0.09086
2177.50786,0.09565
2175.57916,0.10352
2173.65045,0.11444
2171.72175,0.12787
2169.79304,0.14240
2167.86434,0.15619
2165.93563,0.16764
2164.00693,0.17621
2162.07822,0.18202
2160.14952,0.18485
2158.22081,0.18481
2156.29211,0.18327
2154.36340,0.18093
2152.43470,0.17754
2150.50599,0.17308
2148.57729,0.16781
2146.64858,0.16219
2144.71988,0.15674
2142.79117,0.15168
2140.86247,0.14691
2138.93376,0.14220
2137.00506,0.13731
2135.07635,0.13224
2133.14765,0.12729
2131.21894,0.12286
2129.29024,0.11898
2127.36153,0.11537
2125.43283,0.11191
2123.50412,0.10874
2121.57542,0.10633
2119.64671,0.10548
2117.71801,0.10655
2115.78930,0.10808
2113.86060,0.10755
2111.93189,0.10445
2110.00319,0.10039
2108.07448,0.09669
2106.14578,0.09362
2104.21707,0.09100
2102.28837,0.08868
2100.35966,0.08660
2098.43096,0.08469
2096.50225,0.08276
2094.57355,0.08078
2092.64484,0.07898
2090.71614,0.07754
2088.78743,0.07633
2086.85873,0.07519
2084.93003,0.07406
2083.00132,0.07299
2081.07262,0.07202
2079.14391,0.07109
2077.21521,0.07017
2075.28650,0.06929
2073.35780,0.06846
2071.42909,0.06769
2069.50039,0.06693
2067.57168,0.06613
2065.64298,0.06535
2063.71427,0.06463
2061.78557,0.06399
2059.85686,0.06344
2057.92816,0.06302
2055.99945,0.06261
2054.07075,0.06232
2052.14204,0.06251
2050.21334,0.06290
2048.28463,0.06283
2046.35593,0.06249
2044.42722,0.06235
2042.49852,0.06236
2040.56981,0.06243
2038.64111,0.06259
2036.71240,0.06273
2034.78370,0.06253
2032.85499,0.06199
2030.92629,0.06140
2028.99758,0.06081
2027.06888,0.06017
2025.14017,0.05948
2023.21147,0.05874
2021.28276,0.05797
2019.35406,0.05718
2017.42535,0.05634
2015.49665,0.05554
2013.56794,0.05483
2011.63924,0.05417
2009.71053,0.05352
2007.78183,0.05270
2005.85312,0.05169
2003.92442,0.05082
2001.99571,0.05020
2000.06701,0.04969
1998.13830,0.04922
1996.20960,0.04877
1994.28089,0.04834
1992.35219,0.04795
1990.42348,0.04769
1988.49478,0.04748
1986.56607,0.04725
1984.63737,0.04708
1982.70866,0.04712
1980.77996,0.04734
1978.85125,0.04709
1976.92255,0.04606
1974.99384,0.04489
1973.06514,0.04402
1971.13643,0.04335
1969.20773,0.04276
1967.27902,0.04223
1965.35032,0.04178
1963.42161,0.04130
1961.49291,0.04062
1959.56420,0.03975
1957.63550,0.03901
1955.70679,0.03860
1953.77809,0.03828
1951.84939,0.03789
1949.92068,0.03746
1947.99198,0.03703
1946.06327,0.03650
1944.13457,0.03585
1942.20586,0.03532
1940.27716,0.03499
1938.34845,0.03463
1936.41975,0.03420
1934.49104,0.03378
1932.56234,0.03334
1930.63363,0.03288
1928.70493,0.03248
1926.77622,0.03208
1924.84752,0.03163
1922.91881,0.03120
1920.99011,0.03083
1919.06140,0.03042
1917.13270,0.03010
1915.20399,0.02995
1913.27529,0.02971
1911.34658,0.02933
1909.41788,0.02896
1907.48917,0.02867
1905.56047,0.02841
1903.63176,0.02813
1901.70306,0.02781
1899.77435,0.02748
1897.84565,0.02714
1895.91694,0.02682
1893.98824,0.02652
1892.05953,0.02617
1890.13083,0.02581
1888.20212,0.02559
1886.27342,0.02550
1884.34471,0.02536
1882.41601,0.02514
1880.48730,0.02491
1878.55860,0.02471
1876.62989,0.02456
1874.70119,0.02447
1872.77248,0.02432
1870.84378,0.02407
1868.91507,0.02410
1866.98637,0.02471
1865.05766,0.02551
1863.12896,0.02590
1861.20025,0.02573
1859.27155,0.02520
1857.34284,0.02452
1855.41414,0.02381
1853.48543,0.02314
1851.55673,0.02255
1849.62802,0.02201
1847.69932,0.02131
1845.77061,0.02037
1843.84191,0.01983
1841.91320,0.02000
1839.98450,0.02018
1838.05579,0.01998
1836.12709,0.01967
1834.19838,0.01930
1832.26968,0.01869
1830.34097,0.01806
1828.41227,0.01778
1826.48356,0.01767
1824.55486,0.01758
1822.62616,0.01760
1820.69745,0.01749
1818.76875,0.01711
1816.84004,0.01668
1814.91134,0.01637
1812.98263,0.01608
1811.05393,0.01579
1809.12522,0.01568
1807.19652,0.01565
1805.26781,0.01547
1803.33911,0.01507
1801.41040,0.01470
1799.48170,0.01463
1797.55299,0.01472
1795.62429,0.01447
1793.69558,0.01386
1791.76688,0.01375
1789.83817,0.01441
1787.90947,0.01502
1785.98076,0.01521
1784.05206,0.01537
1782.12335,0.01568
1780.19465,0.01607
1778.26594,0.01647
1776.33724,0.01651
1774.40853,0.01597
1772.47983,0.01564
1770.55112,0.01616
1768.62242,0.01694
1766.69371,0.01746
1764.76501,0.01749
1762.83630,0.01700
1760.90760,0.01661
1758.97889,0.01642
1757.05019,0.01609
1755.12148,0.01558
1753.19278,0.01460
1751.26407,0.01348
1749.33537,0.01306
1747.40666,0.01316
1745.47796,0.01307
1743.54925,0.01261
1741.62055,0.01192
1739.69184,0.01142
1737.76314,0.01086
1735.83443,0.00946
1733.90573,0.00846
1731.97702,0.00930
1730.04832,0.01062
1728.11961,0.01121
1726.19091,0.01131
1724.26220,0.01119
1722.33350,0.01081
1720.40479,0.00964
1718.47609,0.00805
1716.54738,0.00774
1714.61868,0.00896
1712.68997,0.01024
1710.76127,0.01081
1708.83256,0.01072
1706.90386,0.01034
1704.97515,0.01000
1703.04645,0.00908
1701.11774,0.00770
1699.18904,0.00743
1697.26033,0.00822
1695.33163,0.00962
1693.40293,0.01186
1691.47422,0.01376
1689.54552,0.01477
1687.61681,0.01505
1685.68811,0.01528
1683.75940,0.01813
1681.83070,0.02440
1679.90199,0.03156
1677.97329,0.03743
1676.04458,0.04187
1674.11588,0.04647
1672.18717,0.05216
1670.25847,0.05908
1668.32976,0.06764
1666.40106,0.07703
1664.47235,0.08588
1662.54365,0.09425
1660.61494,0.10178
1658.68624,0.10683
1656.75753,0.10823
1654.82883,0.10746
1652.90012,0.10988
1650.97142,0.11850
1649.04271,0.12970
1647.11401,0.14193
1645.18530,0.15656
1643.25660,0.17220
1641.32789,0.18593
1639.39919,0.19575
1637.47048,0.20114
1635.54178,0.20427
1633.61307,0.20766
1631.68437,0.21093
1629.75566,0.21307
1627.82696,0.21400
1625.89825,0.21325
1623.96955,0.21032
1622.04084,0.20555
1620.11214,0.19881
1618.18343,0.18995
1616.25473,0.18081
1614.32602,0.17301
1612.39732,0.16552
1610.46861,0.15776
1608.53991,0.15061
1606.61120,0.14467
1604.68250,0.13995
1602.75379,0.13642
1600.82509,0.13408
1598.89638,0.13308
1596.96768,0.13376
1595.03897,0.13651
1593.11027,0.14095
1591.18156,0.14575
1589.25286,0.14961
1587.32415,0.15230
1585.39545,0.15435
1583.46674,0.15637
1581.53804,0.15852
1579.60933,0.16035
1577.68063,0.16176
1575.75192,0.16434
1573.82322,0.16854
1571.89451,0.17246
1569.96581,0.17592
1568.03710,0.18002
1566.10840,0.18430
1564.17970,0.18752
1562.25099,0.18834
1560.32229,0.18690
1558.39358,0.18601
1556.46488,0.18651
1554.53617,0.18613
1552.60747,0.18428
1550.67876,0.18161
1548.75006,0.17834
1546.82135,0.17444
1544.89265,0.16979
1542.96394,0.16446
1541.03524,0.15923
1539.10653,0.15592
1537.17783,0.15442
1535.24912,0.15224
1533.32042,0.14918
1531.39171,0.14656
1529.46301,0.14412
1527.53430,0.14153
1525.60560,0.13942
1523.67689,0.13824
1521.74819,0.13911
1519.81948,0.14380
1517.89078,0.15254
1515.96207,0.16481
1514.03337,0.17969
1512.10466,0.19516
1510.17596,0.20898
1508.24725,0.22018
1506.31855,0.22949
1504.38984,0.23548
1502.46114,0.23446
1500.53243,0.22613
1498.60373,0.21409
1496.67502,0.20234
1494.74632,0.19294
1492.81761,0.18532
1490.88891,0.17866
1488.96020,0.17356
1487.03150,0.17017
1485.10279,0.16742
1483.17409,0.16448
1481.24538,0.16129
1479.31668,0.15803
1477.38797,0.15465
1475.45927,0.15111
1473.53056,0.14794
1471.60186,0.14605
1469.67315,0.14505
1467.74445,0.14342
1465.81574,0.14102
1463.88704,0.13894
1461.95833,0.13709
1460.02963,0.13425
1458.10092,0.13080
1456.17222,0.12911
1454.24351,0.12947
1452.31481,0.12972
1450.38610,0.12904
1448.45740,0.12810
1446.52869,0.12741
1444.59999,0.12679
1442.67128,0.12594
1440.74258,0.12457
1438.81387,0.12239
1436.88517,0.12013
1434.95646,0.11887
1433.02776,0.11799
1431.09906,0.11661
1429.17035,0.11511
1427.24165,0.11365
1425.31294,0.11193
1423.38424,0.10981
1421.45553,0.10723
1419.52683,0.10479
1417.59812,0.10351
1415.66942,0.10292
1413.74071,0.10200
1411.81201,0.10076
1409.88330,0.09952
1407.95460,0.09827
1406.02589,0.09699
1404.09719,0.09590
1402.16848,0.09490
1400.23978,0.09373
1398.31107,0.09259
1396.38237,0.09161
1394.45366,0.09093
1392.52496,0.09061
1390.59625,0.09013
1388.66755,0.08924
1386.73884,0.08857
1384.81014,0.08833
1382.88143,0.08806
1380.95273,0.08756
1379.02402,0.08698
1377.09532,0.08634
1375.16661,0.08571
1373.23791,0.08532
1371.30920,0.08515
1369.38050,0.08493
1367.45179,0.08460
1365.52309,0.08412
1363.59438,0.08355
1361.66568,0.08319
1359.73697,0.08310
1357.80827,0.08298
1355.87956,0.08271
1353.95086,0.08242
1352.02215,0.08217
1350.09345,0.08196
1348.16474,0.08182
1346.23604,0.08177
1344.30733,0.08185
1342.37863,0.08206
1340.44992,0.08247
1338.52122,0.08317
1336.59251,0.08390
1334.66381,0.08424
1332.73510,0.08398
1330.80640,0.08330
1328.87769,0.08243
1326.94899,0.08154
1325.02028,0.08069
1323.09158,0.07988
1321.16287,0.07911
1319.23417,0.07838
1317.30546,0.07774
1315.37676,0.07714
1313.44805,0.07654
1311.51935,0.07596
1309.59064,0.07538
1307.66194,0.07479
1305.73323,0.07419
1303.80453,0.07358
1301.87583,0.07298
1299.94712,0.07239
1298.01842,0.07180
1296.08971,0.07122
1294.16101,0.07064
1292.23230,0.07007
1290.30360,0.06950
1288.37489,0.06897
1286.44619,0.06846
1284.51748,0.06797
1282.58878,0.06750
1280.66007,0.06710
1278.73137,0.06682
1276.80266,0.06672
1274.87396,0.06691
1272.94525,0.06754
1271.01655,0.06888
1269.08784,0.07136
1267.15914,0.07556
1265.23043,0.08224
1263.30173,0.09219
1261.37302,0.10574
1259.44432,0.12211
1257.51561,0.13906
1255.58691,0.15347
1253.65820,0.16282
1251.72950,0.16633
1249.80079,0.16500
1247.87209,0.16071
1245.94338,0.15515
1244.01468,0.14940
1242.08597,0.14402
1240.15727,0.13921
1238.22856,0.13499
1236.29986,0.13127
1234.37115,0.12799
1232.44245,0.12511
1230.51374,0.12257
1228.58504,0.12035
1226.65633,0.11841
1224.72763,0.11671
1222.79892,0.11519
1220.87022,0.11383
1218.94151,0.11261
1217.01281,0.11152
1215.08410,0.11057
1213.15540,0.10974
1211.22669,0.10902
1209.29799,0.10838
1207.36928,0.10783
1205.44058,0.10737
1203.51187,0.10698
1201.58317,0.10662
1199.65446,0.10631
1197.72576,0.10606
1195.79705,0.10589
1193.86835,0.10576
1191.93964,0.10567
1190.01094,0.10559
1188.08223,0.10549
1186.15353,0.10537
1184.22482,0.10522
1182.29612,0.10504
1180.36741,0.10480
1178.43871,0.10455
1176.51000,0.10431
1174.58130,0.10405
1172.65260,0.10373
1170.72389,0.10334
1168.79519,0.10294
1166.86648,0.10258
1164.93778,0.10226
1163.00907,0.10199
1161.08037,0.10177
1159.15166,0.10162
1157.22296,0.10151
1155.29425,0.10144
1153.36555,0.10139
1151.43684,0.10137
1149.50814,0.10137
1147.57943,0.10141
1145.65073,0.10148
1143.72202,0.10160
1141.79332,0.10174
1139.86461,0.10187
1137.93591,0.10198
1136.00720,0.10210
1134.07850,0.10222
1132.14979,0.10235
1130.22109,0.10251
1128.29238,0.10273
1126.36368,0.10303
1124.43497,0.10339
1122.50627,0.10382
1120.57756,0.10434
1118.64886,0.10496
1116.72015,0.10570
1114.79145,0.10659
1112.86274,0.10762
1110.93404,0.10882
1109.00533,0.11028
1107.07663,0.11211
1105.14792,0.11446
1103.21922,0.11740
1101.29051,0.12068
1099.36181,0.12384
1097.43310,0.12652
1095.50440,0.12850
1093.57569,0.12974
1091.64699,0.13037
1089.71828,0.13059
1087.78958,0.13056
1085.86087,0.13039
1083.93217,0.13017
1082.00346,0.12995
1080.07476,0.12973
1078.14605,0.12949
1076.21735,0.12922
1074.28864,0.12895
1072.35994,0.12867
1070.43123,0.12841
1068.50253,0.12814
1066.57382,0.12783
1064.64512,0.12749
1062.71641,0.12716
1060.78771,0.12683
1058.85900,0.12649
1056.93030,0.12610
1055.00159,0.12567
1053.07289,0.12522
1051.14418,0.12476
1049.21548,0.12430
1047.28677,0.12383
1045.35807,0.12331
1043.42936,0.12275
1041.50066,0.12216
1039.57196,0.12156
1037.64325,0.12100
1035.71455,0.12047
1033.78584,0.11996
1031.85714,0.11947
1029.92843,0.11897
1027.99973,0.11849
1026.07102,0.11802
1024.14232,0.11756
1022.21361,0.11707
1020.28491,0.11653
1018.35620,0.11599
1016.42750,0.11544
1014.49879,0.11485
1012.57009,0.11425
1010.64138,0.11366
1008.71268,0.11310
1006.78397,0.11259
1004.85527,0.11212
1002.92656,0.11166
1000.99786,0.11112
999.06915,0.11045
997.14045,0.10973
995.21174,0.10900
993.28304,0.10828
991.35433,0.10759
989.42563,0.10696
987.49692,0.10636
985.56822,0.10577
983.63951,0.10519
981.71081,0.10465
979.78210,0.10416
977.85340,0.10368
975.92469,0.10321
973.99599,0.10273
972.06728,0.10223
970.13858,0.10172
968.20987,0.10119
966.28117,0.10069
964.35246,0.10020
962.42376,0.09971
960.49505,0.09920
958.56635,0.09867
956.63764,0.09814
954.70894,0.09758
952.78023,0.09703
950.85153,0.09653
948.92282,0.09607
946.99412,0.09567
945.06541,0.09547
943.13671,0.09570
941.20800,0.09690
939.27930,0.10023
937.35059,0.10815
935.42189,0.12479
933.49318,0.15367
931.56448,0.19080
929.63577,0.21993
927.70707,0.22433
925.77836,0.20627
923.84966,0.18149
921.92095,0.16077
919.99225,0.14618
918.06354,0.13611
916.13484,0.12880
914.20613,0.12327
912.27743,0.11901
910.34873,0.11564
908.42002,0.11290
906.49132,0.11061
904.56261,0.10863
902.63391,0.10688
900.70520,0.10528
898.77650,0.10380
896.84779,0.10242
894.91909,0.10111
892.99038,0.09986
891.06168,0.09867
889.13297,0.09754
887.20427,0.09645
885.27556,0.09539
883.34686,0.09434
881.41815,0.09327
879.48945,0.09219
877.56074,0.09114
875.63204,0.09014
873.70333,0.08917
871.77463,0.08817
869.84592,0.08718
867.91722,0.08622
865.98851,0.08530
864.05981,0.08439
862.13110,0.08350
860.20240,0.08264
858.27369,0.08180
856.34499,0.08096
854.41628,0.08011
852.48758,0.07929
850.55887,0.07849
848.63017,0.07775
846.70146,0.07704
844.77276,0.07634
842.84405,0.07563
840.91535,0.07495
838.98664,0.07429
837.05794,0.07362
835.12923,0.07298
833.20053,0.07243
831.27182,0.07190
829.34312,0.07134
827.41441,0.07075
825.48571,0.07015
823.55700,0.06959
821.62830,0.06907
819.69959,0.06858
817.77089,0.06809
815.84218,0.06763
813.91348,0.06721
811.98477,0.06678
810.05607,0.06634
808.12736,0.06595
806.19866,0.06560
804.26995,0.06523
802.34125,0.06485
800.41254,0.06451
798.48384,0.06419
796.55513,0.06385
794.62643,0.06357
792.69772,0.06335
790.76902,0.06311
788.84031,0.06281
786.91161,0.06253
784.98290,0.06229
783.05420,0.06211
781.12550,0.06202
779.19679,0.06200
777.26809,0.06207
775.33938,0.06229
773.41068,0.06260
771.48197,0.06291
769.55327,0.06330
767.62456,0.06390
765.69586,0.06470
763.76715,0.06574
761.83845,0.06704
759.90974,0.06850
757.98104,0.06999
756.05233,0.07139
754.12363,0.07258
752.19492,0.07343
750.26622,0.07387
748.33751,0.07394
746.40881,0.07364
744.48010,0.07303
742.55140,0.07224
740.62269,0.07134
738.69399,0.07043
736.76528,0.06960
734.83658,0.06893
732.90787,0.06863
730.97917,0.06946
729.05046,0.07271
727.12176,0.07891
725.19305,0.08723
723.26435,0.09654
721.33564,0.10457
719.40694,0.10661
717.47823,0.10085
715.54953,0.09192
713.62082,0.08472
711.69212,0.08023
709.76341,0.07755
707.83471,0.07590
705.90600,0.07483
703.97730,0.07410
702.04859,0.07356
700.11989,0.07310
698.19118,0.07268
696.26248,0.07240
694.33377,0.07238
692.40507,0.07261
690.47636,0.07301
688.54766,0.07365
686.61895,0.07460
684.69025,0.07588
682.76154,0.07774
680.83284,0.08051
678.90413,0.08470
676.97543,0.09140
675.04672,0.10258
673.11802,0.12043
671.18931,0.14452
669.26061,0.16724
667.33190,0.17499
665.40320,0.16263
663.47449,0.14084
661.54579,0.12172
659.61708,0.10906
657.68838,0.10143
655.75967,0.09663
653.83097,0.09349
651.90226,0.09157
649.97356,0.09043
648.04486,0.08973
646.11615,0.08945
644.18745,0.08966
642.25874,0.09019
640.33004,0.09076
638.40133,0.09140
636.47263,0.09231
634.54392,0.09350
632.61522,0.09480
630.68651,0.09618
628.75781,0.09763
626.82910,0.09909
624.90040,0.10082
622.97169,0.10320
621.04299,0.10605
619.11428,0.10875
617.18558,0.11107
615.25687,0.11354
613.32817,0.11668
611.39946,0.11999
609.47076,0.12273
607.54205,0.12515
605.61335,0.12781
603.68464,0.13084
601.75594,0.13399
599.82723,0.13688
