4497.73989,0.02008
4495.81118,0.02009
4493.88248,0.02005
4491.95377,0.02002
4490.02507,0.02001
4488.09636,0.02002
4486.16766,0.02000
4484.23895,0.01998
4482.31025,0.01998
4480.38154,0.01998
4478.45284,0.02001
4476.52413,0.02003
4474.59543,0.02001
4472.66672,0.02000
4470.73802,0.01999
4468.80931,0.01997
4466.88061,0.01993
4464.95190,0.01988
4463.02320,0.01987
4461.09449,0.01987
4459.16579,0.01986
4457.23708,0.01986
4455.30838,0.01984
4453.37967,0.01981
4451.45097,0.01981
4449.52226,0.01980
4447.59356,0.01975
4445.66485,0.01971
4443.73615,0.01969
4441.80744,0.01968
4439.87874,0.01967
4437.95003,0.01969
4436.02133,0.01970
4434.09262,0.01967
4432.16392,0.01962
4430.23522,0.01960
4428.30651,0.01962
4426.37781,0.01964
4424.44910,0.01960
4422.52040,0.01954
4420.59169,0.01951
4418.66299,0.01952
4416.73428,0.01954
4414.80558,0.01952
4412.87687,0.01946
4410.94817,0.01940
4409.01946,0.01937
4407.09076,0.01939
4405.16205,0.01943
4403.23335,0.01944
4401.30464,0.01942
4399.37594,0.01938
4397.44723,0.01935
4395.51853,0.01934
4393.58982,0.01935
4391.66112,0.01935
4389.73241,0.01934
4387.80371,0.01932
4385.87500,0.01928
4383.94630,0.01925
4382.01759,0.01924
4380.08889,0.01921
4378.16018,0.01918
4376.23148,0.01916
4374.30277,0.01916
4372.37407,0.01916
4370.44536,0.01916
4368.51666,0.01916
4366.58795,0.01913
4364.65925,0.01909
4362.73054,0.01908
4360.80184,0.01908
4358.87313,0.01905
4356.94443,0.01902
4355.01572,0.01901
4353.08702,0.01901
4351.15831,0.01901
4349.22961,0.01900
4347.30090,0.01899
4345.37220,0.01896
4343.44349,0.01894
4341.51479,0.01894
4339.58608,0.01894
4337.65738,0.01893
4335.72867,0.01891
4333.79997,0.01888
4331.87126,0.01887
4329.94256,0.01888
4328.01385,0.01888
4326.08515,0.01885
4324.15644,0.01882
4322.22774,0.01880
4320.29903,0.01879
4318.37033,0.01879
4316.44162,0.01881
4314.51292,0.01881
4312.58421,0.01877
4310.65551,0.01874
4308.72680,0.01872
4306.79810,0.01870
4304.86939,0.01868
4302.94069,0.01868
4301.01199,0.01868
4299.08328,0.01868
4297.15458,0.01865
4295.22587,0.01862
4293.29717,0.01859
4291.36846,0.01857
4289.43976,0.01856
4287.51105,0.01856
4285.58235,0.01853
4283.65364,0.01851
4281.72494,0.01851
4279.79623,0.01853
4277.86753,0.01851
4275.93882,0.01848
4274.01012,0.01848
4272.08141,0.01848
4270.15271,0.01846
4268.22400,0.01845
4266.29530,0.01846
4264.36659,0.01844
4262.43789,0.01840
4260.50918,0.01837
4258.58048,0.01838
4256.65177,0.01839
4254.72307,0.01837
4252.79436,0.01835
4250.86566,0.01835
4248.93695,0.01833
4247.00825,0.01831
4245.07954,0.01827
4243.15084,0.01823
4241.22213,0.01822
4239.29343,0.01825
4237.36472,0.01827
4235.43602,0.01826
4233.50731,0.01825
4231.57861,0.01824
4229.64990,0.01824
4227.72120,0.01824
4225.79249,0.01822
4223.86379,0.01819
4221.93508,0.01816
4220.00638,0.01814
4218.07767,0.01812
4216.14897,0.01812
4214.22026,0.01813
4212.29156,0.01814
4210.36285,0.01813
4208.43415,0.01812
4206.50544,0.01811
4204.57674,0.01811
4202.64803,0.01811
4200.71933,0.01811
4198.79062,0.01811
4196.86192,0.01810
4194.93321,0.01808
4193.00451,0.01806
4191.07580,0.01803
4189.14710,0.01801
4187.21839,0.01800
4185.28969,0.01801
4183.36098,0.01799
4181.43228,0.01798
4179.50357,0.01798
4177.57487,0.01800
4175.64616,0.01800
4173.71746,0.01799
4171.78875,0.01798
4169.86005,0.01798
4167.93135,0.01797
4166.00264,0.01796
4164.07394,0.01794
4162.14523,0.01792
4160.21653,0.01790
4158.28782,0.01787
4156.35912,0.01786
4154.43041,0.01787
4152.50171,0.01788
4150.57300,0.01788
4148.64430,0.01790
4146.71559,0.01791
4144.78689,0.01791
4142.85818,0.01791
4140.92948,0.01789
4139.00077,0.01788
4137.07207,0.01787
4135.14336,0.01784
4133.21466,0.01781
4131.28595,0.01780
4129.35725,0.01782
4127.42854,0.01784
4125.49984,0.01784
4123.57113,0.01783
4121.64243,0.01783
4119.71372,0.01782
4117.78502,0.01781
4115.85631,0.01780
4113.92761,0.01779
4111.99890,0.01778
4110.07020,0.01778
4108.14149,0.01779
4106.21279,0.01778
4104.28408,0.01778
4102.35538,0.01776
4100.42667,0.01773
4098.49797,0.01770
4096.56926,0.01768
4094.64056,0.01769
4092.71185,0.01771
4090.78315,0.01772
4088.85444,0.01770
4086.92574,0.01767
4084.99703,0.01766
4083.06833,0.01764
4081.13962,0.01762
4079.21092,0.01760
4077.28221,0.01759
4075.35351,0.01761
4073.42480,0.01764
4071.49610,0.01763
4069.56739,0.01760
4067.63869,0.01758
4065.70998,0.01757
4063.78128,0.01755
4061.85257,0.01755
4059.92387,0.01756
4057.99516,0.01757
4056.06646,0.01758
4054.13775,0.01755
4052.20905,0.01752
4050.28034,0.01751
4048.35164,0.01750
4046.42293,0.01750
4044.49423,0.01750
4042.56552,0.01750
4040.63682,0.01749
4038.70812,0.01747
4036.77941,0.01747
4034.85071,0.01747
4032.92200,0.01745
4030.99330,0.01742
4029.06459,0.01741
4027.13589,0.01740
4025.20718,0.01738
4023.27848,0.01736
4021.34977,0.01735
4019.42107,0.01735
4017.49236,0.01734
4015.56366,0.01733
4013.63495,0.01732
4011.70625,0.01731
4009.77754,0.01728
4007.84884,0.01726
4005.92013,0.01727
4003.99143,0.01728
4002.06272,0.01729
4000.13402,0.01728
3998.20531,0.01725
3996.27661,0.01723
3994.34790,0.01722
3992.41920,0.01720
3990.49049,0.01718
3988.56179,0.01717
3986.63308,0.01716
3984.70438,0.01714
3982.77567,0.01715
3980.84697,0.01716
3978.91826,0.01715
3976.98956,0.01714
3975.06085,0.01714
3973.13215,0.01713
3971.20344,0.01709
3969.27474,0.01706
3967.34603,0.01705
3965.41733,0.01704
3963.48862,0.01702
3961.55992,0.01702
3959.63121,0.01700
3957.70251,0.01696
3955.77380,0.01694
3953.84510,0.01696
3951.91639,0.01699
3949.98769,0.01699
3948.05898,0.01696
3946.13028,0.01694
3944.20157,0.01694
3942.27287,0.01692
3940.34416,0.01688
3938.41546,0.01684
3936.48675,0.01684
3934.55805,0.01687
3932.62934,0.01687
3930.70064,0.01683
3928.77193,0.01681
3926.84323,0.01683
3924.91452,0.01685
3922.98582,0.01684
3921.05711,0.01686
3919.12841,0.01690
3917.19970,0.01687
3915.27100,0.01677
3913.34229,0.01671
3911.41359,0.01670
3909.48489,0.01672
3907.55618,0.01677
3905.62748,0.01689
3903.69877,0.01702
3901.77007,0.01706
3899.84136,0.01697
3897.91266,0.01679
3895.98395,0.01665
3894.05525,0.01668
3892.12654,0.01677
3890.19784,0.01674
3888.26913,0.01671
3886.34043,0.01678
3884.41172,0.01675
3882.48302,0.01666
3880.55431,0.01661
3878.62561,0.01652
3876.69690,0.01646
3874.76820,0.01651
3872.83949,0.01665
3870.91079,0.01680
3868.98208,0.01678
3867.05338,0.01667
3865.12467,0.01663
3863.19597,0.01656
3861.26726,0.01641
3859.33856,0.01634
3857.40985,0.01659
3855.48115,0.01720
3853.55244,0.01753
3851.62374,0.01713
3849.69503,0.01649
3847.76633,0.01617
3845.83762,0.01615
3843.90892,0.01625
3841.98021,0.01638
3840.05151,0.01660
3838.12280,0.01674
3836.19410,0.01659
3834.26539,0.01630
3832.33669,0.01614
3830.40798,0.01604
3828.47928,0.01598
3826.55057,0.01595
3824.62187,0.01602
3822.69316,0.01621
3820.76446,0.01633
3818.83575,0.01632
3816.90705,0.01635
3814.97834,0.01622
3813.04964,0.01589
3811.12093,0.01572
3809.19223,0.01585
3807.26352,0.01598
3805.33482,0.01597
3803.40611,0.01605
3801.47741,0.01615
3799.54870,0.01598
3797.62000,0.01572
3795.69129,0.01557
3793.76259,0.01543
3791.83388,0.01533
3789.90518,0.01532
3787.97647,0.01535
3786.04777,0.01537
3784.11906,0.01536
3782.19036,0.01533
3780.26166,0.01533
3778.33295,0.01530
3776.40425,0.01522
3774.47554,0.01518
3772.54684,0.01525
3770.61813,0.01535
3768.68943,0.01533
3766.76072,0.01525
3764.83202,0.01518
3762.90331,0.01514
3760.97461,0.01517
3759.04590,0.01519
3757.11720,0.01518
3755.18849,0.01534
3753.25979,0.01573
3751.33108,0.01602
3749.40238,0.01595
3747.47367,0.01585
3745.54497,0.01598
3743.61626,0.01585
3741.68756,0.01538
3739.75885,0.01517
3737.83015,0.01535
3735.90144,0.01553
3733.97274,0.01550
3732.04403,0.01530
3730.11533,0.01505
3728.18662,0.01492
3726.25792,0.01490
3724.32921,0.01487
3722.40051,0.01479
3720.47180,0.01466
3718.54310,0.01451
3716.61439,0.01445
3714.68569,0.01458
3712.75698,0.01480
3710.82828,0.01480
3708.89957,0.01455
3706.97087,0.01433
3705.04216,0.01428
3703.11346,0.01432
3701.18475,0.01431
3699.25605,0.01421
3697.32734,0.01412
3695.39864,0.01409
3693.46993,0.01415
3691.54123,0.01437
3689.61252,0.01458
3687.68382,0.01448
3685.75511,0.01411
3683.82641,0.01384
3681.89770,0.01377
3679.96900,0.01387
3678.04029,0.01419
3676.11159,0.01449
3674.18288,0.01446
3672.25418,0.01432
3670.32547,0.01424
3668.39677,0.01397
3666.46806,0.01362
3664.53936,0.01348
3662.61065,0.01347
3660.68195,0.01348
3658.75324,0.01355
3656.82454,0.01365
3654.89583,0.01364
3652.96713,0.01370
3651.03842,0.01400
3649.10972,0.01421
3647.18102,0.01408
3645.25231,0.01380
3643.32361,0.01364
3641.39490,0.01358
3639.46620,0.01360
3637.53749,0.01367
3635.60879,0.01379
3633.68008,0.01396
3631.75138,0.01425
3629.82267,0.01457
3627.89397,0.01456
3625.96526,0.01428
3624.03656,0.01415
3622.10785,0.01429
3620.17915,0.01450
3618.25044,0.01457
3616.32174,0.01454
3614.39303,0.01456
3612.46433,0.01465
3610.53562,0.01474
3608.60692,0.01477
3606.67821,0.01474
3604.74951,0.01471
3602.82080,0.01471
3600.89210,0.01474
3598.96339,0.01477
3597.03469,0.01483
3595.10598,0.01489
3593.17728,0.01494
3591.24857,0.01501
3589.31987,0.01511
3587.39116,0.01512
3585.46246,0.01500
3583.53375,0.01488
3581.60505,0.01485
3579.67634,0.01485
3577.74764,0.01484
3575.81893,0.01484
3573.89023,0.01487
3571.96152,0.01494
3570.03282,0.01508
3568.10411,0.01521
3566.17541,0.01519
3564.24670,0.01508
3562.31800,0.01501
3560.38929,0.01499
3558.46059,0.01498
3556.53188,0.01500
3554.60318,0.01505
3552.67447,0.01511
3550.74577,0.01515
3548.81706,0.01520
3546.88836,0.01528
3544.95965,0.01535
3543.03095,0.01537
3541.10224,0.01541
3539.17354,0.01553
3537.24483,0.01574
3535.31613,0.01597
3533.38742,0.01621
3531.45872,0.01651
3529.53001,0.01688
3527.60131,0.01730
3525.67260,0.01776
3523.74390,0.01827
3521.81519,0.01883
3519.88649,0.01945
3517.95779,0.02016
3516.02908,0.02090
3514.10038,0.02166
3512.17167,0.02248
3510.24297,0.02335
3508.31426,0.02426
3506.38556,0.02520
3504.45685,0.02621
3502.52815,0.02727
3500.59944,0.02833
3498.67074,0.02942
3496.74203,0.03058
3494.81333,0.03181
3492.88462,0.03306
3490.95592,0.03436
3489.02721,0.03574
3487.09851,0.03717
3485.16980,0.03855
3483.24110,0.03983
3481.31239,0.04102
3479.38369,0.04215
3477.45498,0.04324
3475.52628,0.04431
3473.59757,0.04537
3471.66887,0.04639
3469.74016,0.04730
3467.81146,0.04800
3465.88275,0.04853
3463.95405,0.04896
3462.02534,0.04930
3460.09664,0.04959
3458.16793,0.04986
3456.23923,0.05012
3454.31052,0.05034
3452.38182,0.05049
3450.45311,0.05053
3448.52441,0.05048
3446.59570,0.05040
3444.66700,0.05028
3442.73829,0.05011
3440.80959,0.04994
3438.88088,0.04981
3436.95218,0.04974
3435.02347,0.04970
3433.09477,0.04971
3431.16606,0.04977
3429.23736,0.04991
3427.30865,0.05013
3425.37995,0.05041
3423.45124,0.05076
3421.52254,0.05118
3419.59383,0.05160
3417.66513,0.05198
3415.73642,0.05234
3413.80772,0.05272
3411.87901,0.05311
3409.95031,0.05350
3408.02160,0.05392
3406.09290,0.05437
3404.16419,0.05487
3402.23549,0.05540
3400.30678,0.05599
3398.37808,0.05661
3396.44937,0.05723
3394.52067,0.05783
3392.59196,0.05847
3390.66326,0.05913
3388.73456,0.05976
3386.80585,0.06037
3384.87715,0.06096
3382.94844,0.06155
3381.01974,0.06212
3379.09103,0.06265
3377.16233,0.06316
3375.23362,0.06368
3373.30492,0.06423
3371.37621,0.06477
3369.44751,0.06529
3367.51880,0.06580
3365.59010,0.06634
3363.66139,0.06689
3361.73269,0.06746
3359.80398,0.06804
3357.87528,0.06863
3355.94657,0.06925
3354.01787,0.06988
3352.08916,0.07053
3350.16046,0.07117
3348.23175,0.07181
3346.30305,0.07245
3344.37434,0.07308
3342.44564,0.07373
3340.51693,0.07436
3338.58823,0.07495
3336.65952,0.07549
3334.73082,0.07600
3332.80211,0.07646
3330.87341,0.07687
3328.94470,0.07720
3327.01600,0.07747
3325.08729,0.07768
3323.15859,0.07783
3321.22988,0.07792
3319.30118,0.07797
3317.37247,0.07796
3315.44377,0.07789
3313.51506,0.07774
3311.58636,0.07752
3309.65765,0.07728
3307.72895,0.07701
3305.80024,0.07674
3303.87154,0.07644
3301.94283,0.07611
3300.01413,0.07576
3298.08542,0.07538
3296.15672,0.07501
3294.22801,0.07466
3292.29931,0.07431
3290.37060,0.07395
3288.44190,0.07358
3286.51319,0.07322
3284.58449,0.07288
3282.65578,0.07255
3280.72708,0.07226
3278.79837,0.07198
3276.86967,0.07169
3274.94096,0.07142
3273.01226,0.07117
3271.08355,0.07093
3269.15485,0.07074
3267.22614,0.07058
3265.29744,0.07041
3263.36873,0.07025
3261.44003,0.07014
3259.51132,0.07008
3257.58262,0.07005
3255.65392,0.07006
3253.72521,0.07011
3251.79651,0.07018
3249.86780,0.07027
3247.93910,0.07039
3246.01039,0.07058
3244.08169,0.07083
3242.15298,0.07113
3240.22428,0.07146
3238.29557,0.07181
3236.36687,0.07222
3234.43816,0.07268
3232.50946,0.07321
3230.58075,0.07379
3228.65205,0.07441
3226.72334,0.07507
3224.79464,0.07574
3222.86593,0.07641
3220.93723,0.07710
3219.00852,0.07782
3217.07982,0.07856
3215.15111,0.07928
3213.22241,0.07995
3211.29370,0.08059
3209.36500,0.08122
3207.43629,0.08186
3205.50759,0.08250
3203.57888,0.08310
3201.65018,0.08363
3199.72147,0.08411
3197.79277,0.08457
3195.86406,0.08503
3193.93536,0.08545
3192.00665,0.08582
3190.07795,0.08620
3188.14924,0.08657
3186.22054,0.08692
3184.29183,0.08727
3182.36313,0.08761
3180.43442,0.08795
3178.50572,0.08829
3176.57701,0.08867
3174.64831,0.08908
3172.71960,0.08948
3170.79090,0.08987
3168.86219,0.09025
3166.93349,0.09066
3165.00478,0.09108
3163.07608,0.09151
3161.14737,0.09192
3159.21867,0.09231
3157.28996,0.09271
3155.36126,0.09311
3153.43255,0.09350
3151.50385,0.09388
3149.57514,0.09425
3147.64644,0.09463
3145.71773,0.09500
3143.78903,0.09533
3141.86032,0.09563
3139.93162,0.09591
3138.00291,0.09618
3136.07421,0.09642
3134.14550,0.09663
3132.21680,0.09682
3130.28809,0.09698
3128.35939,0.09711
3126.43069,0.09720
3124.50198,0.09726
3122.57328,0.09726
3120.64457,0.09721
3118.71587,0.09714
3116.78716,0.09708
3114.85846,0.09700
3112.92975,0.09689
3111.00105,0.09673
3109.07234,0.09655
3107.14364,0.09637
3105.21493,0.09617
3103.28623,0.09595
3101.35752,0.09573
3099.42882,0.09548
3097.50011,0.09519
3095.57141,0.09488
3093.64270,0.09459
3091.71400,0.09434
3089.78529,0.09407
3087.85659,0.09378
3085.92788,0.09347
3083.99918,0.09314
3082.07047,0.09279
3080.14177,0.09242
3078.21306,0.09208
3076.28436,0.09176
3074.35565,0.09142
3072.42695,0.09106
3070.49824,0.09068
3068.56954,0.09032
3066.64083,0.08997
3064.71213,0.08962
3062.78342,0.08924
3060.85472,0.08885
3058.92601,0.08848
3056.99731,0.08811
3055.06860,0.08772
3053.13990,0.08733
3051.21119,0.08693
3049.28249,0.08653
3047.35378,0.08613
3045.42508,0.08573
3043.49637,0.08535
3041.56767,0.08499
3039.63896,0.08463
3037.71026,0.08425
3035.78155,0.08387
3033.85285,0.08349
3031.92414,0.08312
3029.99544,0.08274
3028.06673,0.08233
3026.13803,0.08192
3024.20932,0.08151
3022.28062,0.08113
3020.35191,0.08074
3018.42321,0.08035
3016.49450,0.07997
3014.56580,0.07962
3012.63709,0.07924
3010.70839,0.07883
3008.77968,0.07840
3006.85098,0.07797
3004.92227,0.07758
3002.99357,0.07721
3001.06486,0.07683
2999.13616,0.07644
2997.20746,0.07605
2995.27875,0.07566
2993.35005,0.07528
2991.42134,0.07492
2989.49264,0.07456
2987.56393,0.07417
2985.63523,0.07379
2983.70652,0.07341
2981.77782,0.07304
2979.84911,0.07266
2977.92041,0.07228
2975.99170,0.07189
2974.06300,0.07149
2972.13429,0.07108
2970.20559,0.07067
2968.27688,0.07028
2966.34818,0.06991
2964.41947,0.06956
2962.49077,0.06920
2960.56206,0.06883
2958.63336,0.06844
2956.70465,0.06807
2954.77595,0.06772
2952.84724,0.06735
2950.91854,0.06698
2948.98983,0.06660
2947.06113,0.06620
2945.13242,0.06579
2943.20372,0.06538
2941.27501,0.06496
2939.34631,0.06453
2937.41760,0.06411
2935.48890,0.06368
2933.56019,0.06325
2931.63149,0.06283
2929.70278,0.06240
2927.77408,0.06195
2925.84537,0.06152
2923.91667,0.06112
2921.98796,0.06074
2920.05926,0.06034
2918.13055,0.05996
2916.20185,0.05960
2914.27314,0.05927
2912.34444,0.05897
2910.41573,0.05869
2908.48703,0.05838
2906.55832,0.05804
2904.62962,0.05770
2902.70091,0.05736
2900.77221,0.05706
2898.84350,0.05679
2896.91480,0.05654
2894.98609,0.05627
2893.05739,0.05599
2891.12868,0.05573
2889.19998,0.05548
2887.27127,0.05523
2885.34257,0.05498
2883.41386,0.05472
2881.48516,0.05446
2879.55645,0.05422
2877.62775,0.05401
2875.69904,0.05379
2873.77034,0.05359
2871.84163,0.05339
2869.91293,0.05319
2867.98422,0.05299
2866.05552,0.05280
2864.12682,0.05261
2862.19811,0.05241
2860.26941,0.05220
2858.34070,0.05200
2856.41200,0.05179
2854.48329,0.05158
2852.55459,0.05139
2850.62588,0.05123
2848.69718,0.05110
2846.76847,0.05098
2844.83977,0.05085
2842.91106,0.05072
2840.98236,0.05058
2839.05365,0.05044
2837.12495,0.05028
2835.19624,0.05011
2833.26754,0.04993
2831.33883,0.04976
2829.41013,0.04960
2827.48142,0.04945
2825.55272,0.04929
2823.62401,0.04912
2821.69531,0.04897
2819.76660,0.04886
2817.83790,0.04874
2815.90919,0.04861
2813.98049,0.04848
2812.05178,0.04836
2810.12308,0.04826
2808.19437,0.04817
2806.26567,0.04811
2804.33696,0.04805
2802.40826,0.04800
2800.47955,0.04794
2798.55085,0.04787
2796.62214,0.04782
2794.69344,0.04777
2792.76473,0.04769
2790.83603,0.04758
2788.90732,0.04745
2786.97862,0.04731
2785.04991,0.04714
2783.12121,0.04697
2781.19250,0.04679
2779.26380,0.04659
2777.33509,0.04639
2775.40639,0.04618
2773.47768,0.04598
2771.54898,0.04577
2769.62027,0.04557
2767.69157,0.04536
2765.76286,0.04514
2763.83416,0.04494
2761.90545,0.04473
2759.97675,0.04450
2758.04804,0.04428
2756.11934,0.04408
2754.19063,0.04388
2752.26193,0.04370
2750.33322,0.04352
2748.40452,0.04332
2746.47581,0.04312
2744.54711,0.04291
2742.61840,0.04270
2740.68970,0.04250
2738.76099,0.04231
2736.83229,0.04213
2734.90359,0.04194
2732.97488,0.04172
2731.04618,0.04149
2729.11747,0.04126
2727.18877,0.04104
2725.26006,0.04084
2723.33136,0.04065
2721.40265,0.04046
2719.47395,0.04027
2717.54524,0.04010
2715.61654,0.03995
2713.68783,0.03978
2711.75913,0.03960
2709.83042,0.03943
2707.90172,0.03928
2705.97301,0.03914
2704.04431,0.03901
2702.11560,0.03888
2700.18690,0.03875
2698.25819,0.03861
2696.32949,0.03849
2694.40078,0.03837
2692.47208,0.03827
2690.54337,0.03816
2688.61467,0.03804
2686.68596,0.03793
2684.75726,0.03781
2682.82855,0.03770
2680.89985,0.03758
2678.97114,0.03745
2677.04244,0.03730
2675.11373,0.03715
2673.18503,0.03702
2671.25632,0.03689
2669.32762,0.03678
2667.39891,0.03666
2665.47021,0.03656
2663.54150,0.03651
2661.61280,0.03649
2659.68409,0.03648
2657.75539,0.03645
2655.82668,0.03641
2653.89798,0.03637
2651.96927,0.03633
2650.04057,0.03628
2648.11186,0.03624
2646.18316,0.03620
2644.25445,0.03617
2642.32575,0.03614
2640.39704,0.03608
2638.46834,0.03598
2636.53963,0.03591
2634.61093,0.03587
2632.68222,0.03585
2630.75352,0.03581
2628.82481,0.03578
2626.89611,0.03573
2624.96740,0.03568
2623.03870,0.03562
2621.10999,0.03557
2619.18129,0.03554
2617.25258,0.03549
2615.32388,0.03540
2613.39517,0.03530
2611.46647,0.03522
2609.53776,0.03516
2607.60906,0.03513
2605.68036,0.03511
2603.75165,0.03507
2601.82295,0.03499
2599.89424,0.03489
2597.96554,0.03479
2596.03683,0.03474
2594.10813,0.03471
2592.17942,0.03467
2590.25072,0.03459
2588.32201,0.03452
2586.39331,0.03448
2584.46460,0.03443
2582.53590,0.03435
2580.60719,0.03425
2578.67849,0.03414
2576.74978,0.03400
2574.82108,0.03388
2572.89237,0.03377
2570.96367,0.03368
2569.03496,0.03359
2567.10626,0.03350
2565.17755,0.03337
2563.24885,0.03322
2561.32014,0.03310
2559.39144,0.03301
2557.46273,0.03291
2555.53403,0.03282
2553.60532,0.03277
2551.67662,0.03271
2549.74791,0.03259
2547.81921,0.03247
2545.89050,0.03238
2543.96180,0.03231
2542.03309,0.03223
2540.10439,0.03214
2538.17568,0.03205
2536.24698,0.03196
2534.31827,0.03187
2532.38957,0.03180
2530.46086,0.03172
2528.53216,0.03162
2526.60345,0.03154
2524.67475,0.03146
2522.74604,0.03140
2520.81734,0.03136
2518.88863,0.03134
2516.95993,0.03128
2515.03122,0.03115
2513.10252,0.03102
2511.17381,0.03094
2509.24511,0.03089
2507.31640,0.03083
2505.38770,0.03071
2503.45899,0.03059
2501.53029,0.03051
2499.60158,0.03043
2497.67288,0.03032
2495.74417,0.03018
2493.81547,0.03004
2491.88676,0.02990
2489.95806,0.02976
2488.02935,0.02964
2486.10065,0.02953
2484.17194,0.02942
2482.24324,0.02929
2480.31453,0.02915
2478.38583,0.02902
2476.45713,0.02891
2474.52842,0.02881
2472.59972,0.02871
2470.67101,0.02860
2468.74231,0.02849
2466.81360,0.02840
2464.88490,0.02834
2462.95619,0.02829
2461.02749,0.02825
2459.09878,0.02821
2457.17008,0.02817
2455.24137,0.02810
2453.31267,0.02803
2451.38396,0.02798
2449.45526,0.02790
2447.52655,0.02775
2445.59785,0.02758
2443.66914,0.02744
2441.74044,0.02732
2439.81173,0.02721
2437.88303,0.02710
2435.95432,0.02700
2434.02562,0.02688
2432.09691,0.02675
2430.16821,0.02665
2428.23950,0.02657
2426.31080,0.02648
2424.38209,0.02636
2422.45339,0.02624
2420.52468,0.02612
2418.59598,0.02601
2416.66727,0.02588
2414.73857,0.02576
2412.80986,0.02566
2410.88116,0.02557
2408.95245,0.02542
2407.02375,0.02522
2405.09504,0.02503
2403.16634,0.02488
2401.23763,0.02475
2399.30893,0.02463
2397.38022,0.02451
2395.45152,0.02439
2393.52281,0.02428
2391.59411,0.02416
2389.66540,0.02403
2387.73670,0.02393
2385.80799,0.02387
2383.87929,0.02389
2381.95058,0.02401
2380.02188,0.02425
2378.09317,0.02466
2376.16447,0.02525
2374.23576,0.02603
2372.30706,0.02692
2370.37835,0.02788
2368.44965,0.02881
2366.52094,0.02963
2364.59224,0.03027
2362.66353,0.03066
2360.73483,0.03069
2358.80612,0.03031
2356.87742,0.02952
2354.94871,0.02838
2353.02001,0.02698
2351.09130,0.02566
2349.16260,0.02504
2347.23389,0.02543
2345.30519,0.02644
2343.37649,0.02745
2341.44778,0.02817
2339.51908,0.02859
2337.59037,0.02878
2335.66167,0.02879
2333.73296,0.02866
2331.80426,0.02842
2329.87555,0.02813
2327.94685,0.02805
2326.01814,0.02834
2324.08944,0.02863
2322.16073,0.02841
2320.23203,0.02781
2318.30332,0.02723
2316.37462,0.02677
2314.44591,0.02641
2312.51721,0.02614
2310.58850,0.02593
2308.65980,0.02572
2306.73109,0.02556
2304.80239,0.02547
2302.87368,0.02545
2300.94498,0.02544
2299.01627,0.02547
2297.08757,0.02555
2295.15886,0.02567
2293.23016,0.02581
2291.30145,0.02596
2289.37275,0.02613
2287.44404,0.02634
2285.51534,0.02649
2283.58663,0.02650
2281.65793,0.02640
2279.72922,0.02629
2277.80052,0.02625
2275.87181,0.02624
2273.94311,0.02622
2272.01440,0.02619
2270.08570,0.02619
2268.15699,0.02622
2266.22829,0.02623
2264.29958,0.02618
2262.37088,0.02619
2260.44217,0.02636
2258.51347,0.02657
2256.58476,0.02666
2254.65606,0.02658
2252.72735,0.02650
2250.79865,0.02655
2248.86994,0.02667
2246.94124,0.02682
2245.01253,0.02696
2243.08383,0.02712
2241.15512,0.02729
2239.22642,0.02744
2237.29771,0.02753
2235.36901,0.02761
2233.44030,0.02772
2231.51160,0.02785
2229.58289,0.02795
2227.65419,0.02803
2225.72548,0.02809
2223.79678,0.02815
2221.86807,0.02826
2219.93937,0.02839
2218.01066,0.02847
2216.08196,0.02854
2214.15326,0.02863
2212.22455,0.02868
2210.29585,0.02875
2208.36714,0.02884
2206.43844,0.02889
2204.50973,0.02895
2202.58103,0.02908
2200.65232,0.02921
2198.72362,0.02937
2196.79491,0.02955
2194.86621,0.02975
2192.93750,0.03002
2191.00880,0.03033
2189.08009,0.03058
2187.15139,0.03078
2185.22268,0.03091
2183.29398,0.03091
2181.36527,0.03079
2179.43657,0.03069
2177.50786,0.03067
2175.57916,0.03061
2173.65045,0.03058
2171.72175,0.03077
2169.79304,0.03125
2167.86434,0.03192
2165.93563,0.03260
2164.00693,0.03324
2162.07822,0.03370
2160.14952,0.03301
2158.22081,0.03083
2156.29211,0.02897
2154.36340,0.02839
2152.43470,0.02833
2150.50599,0.02824
2148.57729,0.02803
2146.64858,0.02767
2144.71988,0.02729
2142.79117,0.02701
2140.86247,0.02678
2138.93376,0.02653
2137.00506,0.02608
2135.07635,0.02530
2133.14765,0.02450
2131.21894,0.02409
2129.29024,0.02392
2127.36153,0.02374
2125.43283,0.02355
2123.50412,0.02340
2121.57542,0.02327
2119.64671,0.02317
2117.71801,0.02309
2115.78930,0.02309
2113.86060,0.02314
2111.93189,0.02311
2110.00319,0.02293
2108.07448,0.02268
2106.14578,0.02246
2104.21707,0.02224
2102.28837,0.02199
2100.35966,0.02178
2098.43096,0.02156
2096.50225,0.02117
2094.57355,0.02070
2092.64484,0.02046
2090.71614,0.02050
2088.78743,0.02060
2086.85873,0.02062
2084.93003,0.02064
2083.00132,0.02068
2081.07262,0.02069
2079.14391,0.02072
2077.21521,0.02074
2075.28650,0.02070
2073.35780,0.02067
2071.42909,0.02072
2069.50039,0.02073
2067.57168,0.02063
2065.64298,0.02054
2063.71427,0.02052
2061.78557,0.02055
2059.85686,0.02059
2057.92816,0.02063
2055.99945,0.02069
2054.07075,0.02086
2052.14204,0.02144
2050.21334,0.02206
2048.28463,0.02211
2046.35593,0.02180
2044.42722,0.02162
2042.49852,0.02165
2040.56981,0.02189
2038.64111,0.02223
2036.71240,0.02249
2034.78370,0.02251
2032.85499,0.02230
2030.92629,0.02203
2028.99758,0.02177
2027.06888,0.02151
2025.14017,0.02125
2023.21147,0.02103
2021.28276,0.02091
2019.35406,0.02084
2017.42535,0.02067
2015.49665,0.02043
2013.56794,0.02029
2011.63924,0.02026
2009.71053,0.02007
2007.78183,0.01947
2005.85312,0.01870
2003.92442,0.01824
2001.99571,0.01810
2000.06701,0.01805
1998.13830,0.01811
1996.20960,0.01819
1994.28089,0.01814
1992.35219,0.01804
1990.42348,0.01809
1988.49478,0.01826
1986.56607,0.01844
1984.63737,0.01861
1982.70866,0.01899
1980.77996,0.01959
1978.85125,0.01969
1976.92255,0.01882
1974.99384,0.01774
1973.06514,0.01714
1971.13643,0.01686
1969.20773,0.01665
1967.27902,0.01642
1965.35032,0.01616
1963.42161,0.01587
1961.49291,0.01545
1959.56420,0.01491
1957.63550,0.01453
1955.70679,0.01439
1953.77809,0.01428
1951.84939,0.01403
1949.92068,0.01371
1947.99198,0.01342
1946.06327,0.01317
1944.13457,0.01295
1942.20586,0.01271
1940.27716,0.01240
1938.34845,0.01211
1936.41975,0.01189
1934.49104,0.01168
1932.56234,0.01147
1930.63363,0.01130
1928.70493,0.01118
1926.77622,0.01103
1924.84752,0.01088
1922.91881,0.01080
1920.99011,0.01078
1919.06140,0.01074
1917.13270,0.01061
1915.20399,0.01043
1913.27529,0.01028
1911.34658,0.01019
1909.41788,0.01009
1907.48917,0.00997
1905.56047,0.00984
1903.63176,0.00973
1901.70306,0.00963
1899.77435,0.00949
1897.84565,0.00937
1895.91694,0.00928
1893.98824,0.00923
1892.05953,0.00920
1890.13083,0.00915
1888.20212,0.00906
1886.27342,0.00893
1884.34471,0.00881
1882.41601,0.00872
1880.48730,0.00865
1878.55860,0.00857
1876.62989,0.00850
1874.70119,0.00847
1872.77248,0.00848
1870.84378,0.00852
1868.91507,0.00850
1866.98637,0.00838
1865.05766,0.00824
1863.12896,0.00813
1861.20025,0.00803
1859.27155,0.00794
1857.34284,0.00788
1855.41414,0.00785
1853.48543,0.00781
1851.55673,0.00775
1849.62802,0.00770
1847.69932,0.00773
1845.77061,0.00786
1843.84191,0.00788
1841.91320,0.00770
1839.98450,0.00750
1838.05579,0.00740
1836.12709,0.00735
1834.19838,0.00734
1832.26968,0.00740
1830.34097,0.00744
1828.41227,0.00741
1826.48356,0.00736
1824.55486,0.00728
1822.62616,0.00714
1820.69745,0.00697
1818.76875,0.00675
1816.84004,0.00653
1814.91134,0.00646
1812.98263,0.00655
1811.05393,0.00662
1809.12522,0.00663
1807.19652,0.00661
1805.26781,0.00662
1803.33911,0.00668
1801.41040,0.00674
1799.48170,0.00676
1797.55299,0.00675
1795.62429,0.00685
1793.69558,0.00704
1791.76688,0.00713
1789.83817,0.00707
1787.90947,0.00706
1785.98076,0.00718
1784.05206,0.00733
1782.12335,0.00747
1780.19465,0.00759
1778.26594,0.00769
1776.33724,0.00789
1774.40853,0.00828
1772.47983,0.00864
1770.55112,0.00873
1768.62242,0.00866
1766.69371,0.00854
1764.76501,0.00846
1762.83630,0.00844
1760.90760,0.00837
1758.97889,0.00822
1757.05019,0.00809
1755.12148,0.00803
1753.19278,0.00811
1751.26407,0.00825
1749.33537,0.00823
1747.40666,0.00812
1745.47796,0.00809
1743.54925,0.00819
1741.62055,0.00839
1739.69184,0.00858
1737.76314,0.00883
1735.83443,0.00931
1733.90573,0.00971
1731.97702,0.00966
1730.04832,0.00950
1728.11961,0.00954
1726.19091,0.00974
1724.26220,0.01002
1722.33350,0.01039
1720.40479,0.01101
1718.47609,0.01177
1716.54738,0.01227
1714.61868,0.01241
1712.68997,0.01260
1710.76127,0.01305
1708.83256,0.01374
1706.90386,0.01458
1704.97515,0.01546
1703.04645,0.01655
1701.11774,0.01785
1699.18904,0.01897
1697.26033,0.01997
1695.33163,0.02096
1693.40293,0.02189
1691.47422,0.02313
1689.54552,0.02490
1687.61681,0.02719
1685.68811,0.02992
1683.75940,0.03248
1681.83070,0.03470
1679.90199,0.03713
1677.97329,0.04007
1676.04458,0.04325
1674.11588,0.04633
1672.18717,0.04931
1670.25847,0.05228
1668.32976,0.05505
1666.40106,0.05761
1664.47235,0.06024
1662.54365,0.06287
1660.61494,0.06538
1658.68624,0.06797
1656.75753,0.07104
1654.82883,0.07468
1652.90012,0.07810
1650.97142,0.08069
1649.04271,0.08329
1647.11401,0.08646
1645.18530,0.08970
1643.25660,0.09284
1641.32789,0.09622
1639.39919,0.09994
1637.47048,0.10386
1635.54178,0.10749
1633.61307,0.11043
1631.68437,0.11296
1629.75566,0.11544
1627.82696,0.11784
1625.89825,0.12008
1623.96955,0.12215
1622.04084,0.12401
1620.11214,0.12587
1618.18343,0.12791
1616.25473,0.12982
1614.32602,0.13135
1612.39732,0.13289
1610.46861,0.13460
1608.53991,0.13632
1606.61120,0.13787
1604.68250,0.13908
1602.75379,0.13973
1600.82509,0.13962
1598.89638,0.13875
1596.96768,0.13739
1595.03897,0.13594
1593.11027,0.13478
1591.18156,0.13410
1589.25286,0.13394
1587.32415,0.13423
1585.39545,0.13488
1583.46674,0.13581
1581.53804,0.13690
1579.60933,0.13821
1577.68063,0.13970
1575.75192,0.14093
1573.82322,0.14169
1571.89451,0.14249
1569.96581,0.14355
1568.03710,0.14458
1566.10840,0.14566
1564.17970,0.14711
1562.25099,0.14921
1560.32229,0.15180
1558.39358,0.15406
1556.46488,0.15571
1554.53617,0.15738
1552.60747,0.15927
1550.67876,0.16115
1548.75006,0.16291
1546.82135,0.16452
1544.89265,0.16596
1542.96394,0.16717
1541.03524,0.16796
1539.10653,0.16789
1537.17783,0.16708
1535.24912,0.16625
1533.32042,0.16561
1531.39171,0.16494
1529.46301,0.16444
1527.53430,0.16425
1525.60560,0.16428
1523.67689,0.16445
1521.74819,0.16451
1519.81948,0.16410
1517.89078,0.16329
1515.96207,0.16233
1514.03337,0.16132
1512.10466,0.16034
1510.17596,0.15956
1508.24725,0.15896
1506.31855,0.15794
1504.38984,0.15610
1502.46114,0.15402
1500.53243,0.15220
1498.60373,0.15060
1496.67502,0.14902
1494.74632,0.14747
1492.81761,0.14639
1490.88891,0.14599
1488.96020,0.14596
1487.03150,0.14606
1485.10279,0.14622
1483.17409,0.14642
1481.24538,0.14656
1479.31668,0.14659
1477.38797,0.14655
1475.45927,0.14648
1473.53056,0.14630
1471.60186,0.14586
1469.67315,0.14540
1467.74445,0.14540
1465.81574,0.14598
1463.88704,0.14698
1461.95833,0.14848
1460.02963,0.15077
1458.10092,0.15376
1456.17222,0.15678
1454.24351,0.15964
1452.31481,0.16280
1450.38610,0.16638
1448.45740,0.17004
1446.52869,0.17347
1444.59999,0.17661
1442.67128,0.17949
1440.74258,0.18213
1438.81387,0.18456
1436.88517,0.18664
1434.95646,0.18811
1433.02776,0.18918
1431.09906,0.19014
1429.17035,0.19100
1427.24165,0.19176
1425.31294,0.19248
1423.38424,0.19315
1421.45553,0.19382
1419.52683,0.19432
1417.59812,0.19433
1415.66942,0.19394
1413.74071,0.19337
1411.81201,0.19263
1409.88330,0.19165
1407.95460,0.19049
1406.02589,0.18922
1404.09719,0.18784
1402.16848,0.18636
1400.23978,0.18480
1398.31107,0.18305
1396.38237,0.18106
1394.45366,0.17884
1392.52496,0.17641
1390.59625,0.17394
1388.66755,0.17152
1386.73884,0.16906
1384.81014,0.16656
1382.88143,0.16421
1380.95273,0.16213
1379.02402,0.16034
1377.09532,0.15889
1375.16661,0.15781
1373.23791,0.15711
1371.30920,0.15683
1369.38050,0.15704
1367.45179,0.15779
1365.52309,0.15906
1363.59438,0.16081
1361.66568,0.16286
1359.73697,0.16510
1357.80827,0.16753
1355.87956,0.17012
1353.95086,0.17271
1352.02215,0.17522
1350.09345,0.17757
1348.16474,0.17970
1346.23604,0.18150
1344.30733,0.18295
1342.37863,0.18405
1340.44992,0.18485
1338.52122,0.18533
1336.59251,0.18557
1334.66381,0.18572
1332.73510,0.18591
1330.80640,0.18615
1328.87769,0.18643
1326.94899,0.18671
1325.02028,0.18689
1323.09158,0.18689
1321.16287,0.18667
1319.23417,0.18621
1317.30546,0.18558
1315.37676,0.18488
1313.44805,0.18427
1311.51935,0.18386
1309.59064,0.18359
1307.66194,0.18320
1305.73323,0.18241
1303.80453,0.18112
1301.87583,0.17940
1299.94712,0.17738
1298.01842,0.17516
1296.08971,0.17281
1294.16101,0.17042
1292.23230,0.16806
1290.30360,0.16580
1288.37489,0.16372
1286.44619,0.16188
1284.51748,0.16029
1282.58878,0.15895
1280.66007,0.15787
1278.73137,0.15703
1276.80266,0.15643
1274.87396,0.15604
1272.94525,0.15583
1271.01655,0.15579
1269.08784,0.15590
1267.15914,0.15613
1265.23043,0.15638
1263.30173,0.15659
1261.37302,0.15668
1259.44432,0.15656
1257.51561,0.15622
1255.58691,0.15568
1253.65820,0.15497
1251.72950,0.15408
1249.80079,0.15304
1247.87209,0.15189
1245.94338,0.15067
1244.01468,0.14938
1242.08597,0.14802
1240.15727,0.14657
1238.22856,0.14504
1236.29986,0.14343
1234.37115,0.14176
1232.44245,0.14005
1230.51374,0.13834
1228.58504,0.13667
1226.65633,0.13504
1224.72763,0.13344
1222.79892,0.13188
1220.87022,0.13038
1218.94151,0.12898
1217.01281,0.12770
1215.08410,0.12655
1213.15540,0.12552
1211.22669,0.12458
1209.29799,0.12373
1207.36928,0.12301
1205.44058,0.12246
1203.51187,0.12211
1201.58317,0.12194
1199.65446,0.12194
1197.72576,0.12210
1195.79705,0.12237
1193.86835,0.12274
1191.93964,0.12318
1190.01094,0.12365
1188.08223,0.12408
1186.15353,0.12439
1184.22482,0.12458
1182.29612,0.12472
1180.36741,0.12488
1178.43871,0.12512
1176.51000,0.12545
1174.58130,0.12584
1172.65260,0.12621
1170.72389,0.12645
1168.79519,0.12644
1166.86648,0.12610
1164.93778,0.12541
1163.00907,0.12445
1161.08037,0.12330
1159.15166,0.12203
1157.22296,0.12073
1155.29425,0.11947
1153.36555,0.11825
1151.43684,0.11707
1149.50814,0.11591
1147.57943,0.11477
1145.65073,0.11370
1143.72202,0.11269
1141.79332,0.11174
1139.86461,0.11082
1137.93591,0.10997
1136.00720,0.10916
1134.07850,0.10839
1132.14979,0.10765
1130.22109,0.10698
1128.29238,0.10642
1126.36368,0.10602
1124.43497,0.10589
1122.50627,0.10624
1120.57756,0.10725
1118.64886,0.10895
1116.72015,0.11105
1114.79145,0.11312
1112.86274,0.11487
1110.93404,0.11620
1109.00533,0.11698
1107.07663,0.11705
1105.14792,0.11641
1103.21922,0.11529
1101.29051,0.11399
1099.36181,0.11270
1097.43310,0.11147
1095.50440,0.11032
1093.57569,0.10928
1091.64699,0.10835
1089.71828,0.10749
1087.78958,0.10671
1085.86087,0.10596
1083.93217,0.10523
1082.00346,0.10453
1080.07476,0.10386
1078.14605,0.10322
1076.21735,0.10262
1074.28864,0.10207
1072.35994,0.10157
1070.43123,0.10107
1068.50253,0.10063
1066.57382,0.10029
1064.64512,0.10002
1062.71641,0.09977
1060.78771,0.09955
1058.85900,0.09940
1056.93030,0.09933
1055.00159,0.09931
1053.07289,0.09938
1051.14418,0.09957
1049.21548,0.09990
1047.28677,0.10038
1045.35807,0.10100
1043.42936,0.10175
1041.50066,0.10264
1039.57196,0.10361
1037.64325,0.10461
1035.71455,0.10563
1033.78584,0.10665
1031.85714,0.10768
1029.92843,0.10870
1027.99973,0.10971
1026.07102,0.11077
1024.14232,0.11186
1022.21361,0.11292
1020.28491,0.11389
1018.35620,0.11473
1016.42750,0.11540
1014.49879,0.11589
1012.57009,0.11619
1010.64138,0.11636
1008.71268,0.11639
1006.78397,0.11624
1004.85527,0.11586
1002.92656,0.11524
1000.99786,0.11439
999.06915,0.11330
997.14045,0.11206
995.21174,0.11080
993.28304,0.10960
991.35433,0.10853
989.42563,0.10761
987.49692,0.10685
985.56822,0.10619
983.63951,0.10555
981.71081,0.10485
979.78210,0.10399
977.85340,0.10294
975.92469,0.10174
973.99599,0.10043
972.06728,0.09911
970.13858,0.09787
968.20987,0.09675
966.28117,0.09575
964.35246,0.09488
962.42376,0.09411
960.49505,0.09341
958.56635,0.09277
956.63764,0.09215
954.70894,0.09149
952.78023,0.09077
950.85153,0.09003
948.92282,0.08931
946.99412,0.08860
945.06541,0.08792
943.13671,0.08728
941.20800,0.08666
939.27930,0.08605
937.35059,0.08542
935.42189,0.08479
933.49318,0.08419
931.56448,0.08362
929.63577,0.08309
927.70707,0.08258
925.77836,0.08209
923.84966,0.08163
921.92095,0.08120
919.99225,0.08078
918.06354,0.08034
916.13484,0.07989
914.20613,0.07946
912.27743,0.07905
910.34873,0.07867
908.42002,0.07831
906.49132,0.07796
904.56261,0.07763
902.63391,0.07731
900.70520,0.07701
898.77650,0.07671
896.84779,0.07641
894.91909,0.07612
892.99038,0.07585
891.06168,0.07562
889.13297,0.07539
887.20427,0.07515
885.27556,0.07492
883.34686,0.07470
881.41815,0.07451
879.48945,0.07437
877.56074,0.07424
875.63204,0.07409
873.70333,0.07394
871.77463,0.07381
869.84592,0.07375
867.91722,0.07372
865.98851,0.07367
864.05981,0.07359
862.13110,0.07354
860.20240,0.07353
858.27369,0.07355
856.34499,0.07362
854.41628,0.07371
852.48758,0.07383
850.55887,0.07398
848.63017,0.07416
846.70146,0.07435
844.77276,0.07452
842.84405,0.07470
840.91535,0.07492
838.98664,0.07520
837.05794,0.07560
835.12923,0.07619
833.20053,0.07704
831.27182,0.07820
829.34312,0.07983
827.41441,0.08224
825.48571,0.08578
823.55700,0.09085
821.62830,0.09773
819.69959,0.10630
817.77089,0.11612
815.84218,0.12679
813.91348,0.13810
811.98477,0.14944
810.05607,0.15921
808.12736,0.16521
806.19866,0.16635
804.26995,0.16439
802.34125,0.16265
800.41254,0.16221
798.48384,0.16061
796.55513,0.15555
794.62643,0.14811
792.69772,0.14090
790.76902,0.13526
788.84031,0.13113
786.91161,0.12798
784.98290,0.12539
783.05420,0.12329
781.12550,0.12164
779.19679,0.12040
777.26809,0.11954
775.33938,0.11908
773.41068,0.11891
771.48197,0.11873
769.55327,0.11831
767.62456,0.11775
765.69586,0.11735
763.76715,0.11726
761.83845,0.11745
759.90974,0.11785
757.98104,0.11840
756.05233,0.11901
754.12363,0.11951
752.19492,0.11966
750.26622,0.11938
748.33751,0.11887
746.40881,0.11847
744.48010,0.11840
742.55140,0.11869
740.62269,0.11921
738.69399,0.11982
736.76528,0.12043
734.83658,0.12104
732.90787,0.12168
730.97917,0.12238
729.05046,0.12310
727.12176,0.12386
725.19305,0.12464
723.26435,0.12541
721.33564,0.12608
719.40694,0.12667
717.47823,0.12723
715.54953,0.12787
713.62082,0.12864
711.69212,0.12942
709.76341,0.13015
707.83471,0.13085
705.90600,0.13149
703.97730,0.13204
702.04859,0.13252
700.11989,0.13299
698.19118,0.13344
696.26248,0.13385
694.33377,0.13424
692.40507,0.13478
690.47636,0.13541
688.54766,0.13597
686.61895,0.13645
684.69025,0.13690
682.76154,0.13735
680.83284,0.13768
678.90413,0.13792
676.97543,0.13826
675.04672,0.13878
673.11802,0.13945
671.18931,0.14053
669.26061,0.14195
667.33190,0.14244
665.40320,0.14163
663.47449,0.14104
661.54579,0.14129
659.61708,0.14177
657.68838,0.14214
655.75967,0.14237
653.83097,0.14252
651.90226,0.14268
649.97356,0.14291
648.04486,0.14313
646.11615,0.14333
644.18745,0.14349
642.25874,0.14364
640.33004,0.14403
638.40133,0.14452
636.47263,0.14480
634.54392,0.14500
632.61522,0.14532
630.68651,0.14585
628.75781,0.14660
626.82910,0.14741
624.90040,0.14811
622.97169,0.14865
621.04299,0.14901
619.11428,0.14951
617.18558,0.15044
615.25687,0.15151
613.32817,0.15274
611.39946,0.15371
609.47076,0.15358
607.54205,0.15267
605.61335,0.15170
603.68464,0.15074
601.75594,0.14980
599.82723,0.14940
597.89853,0.14989
595.96982,0.15096
594.04112,0.15230
592.11241,0.15396
590.18371,0.15589
588.25500,0.15739
586.32630,0.15838
584.39759,0.15965
582.46889,0.16062
580.54018,0.15969
578.61148,0.15666
576.68277,0.15253
574.75407,0.14818
572.82536,0.14557
570.89666,0.14639
568.96795,0.14833
567.03925,0.14859
565.11054,0.14757
563.18184,0.14635
561.25313,0.14613
559.32443,0.14688
557.39572,0.14622
555.46702,0.14389
553.53831,0.14152
551.60961,0.13957
549.68090,0.14026
547.75220,0.14599
545.82349,0.15269
543.89479,0.15307
541.96608,0.14794
540.03738,0.14595
538.10867,0.15086
536.17997,0.15702
534.25126,0.15825
532.32256,0.15511
530.39385,0.14993
528.46515,0.14275
526.53644,0.13662
524.60774,0.13465
522.67903,0.13023
520.75033,0.11112
518.82163,0.08498
516.89292,0.07008
514.96422,0.04359
