4497.73989,0.02212
4495.81118,0.02212
4493.88248,0.02212
4491.95377,0.02212
4490.02507,0.02211
4488.09636,0.02210
4486.16766,0.02210
4484.23895,0.02209
4482.31025,0.02206
4480.38154,0.02201
4478.45284,0.02199
4476.52413,0.02199
4474.59543,0.02200
4472.66672,0.02200
4470.73802,0.02198
4468.80931,0.02195
4466.88061,0.02192
4464.95190,0.02189
4463.02320,0.02187
4461.09449,0.02185
4459.16579,0.02183
4457.23708,0.02182
4455.30838,0.02182
4453.37967,0.02181
4451.45097,0.02179
4449.52226,0.02179
4447.59356,0.02180
4445.66485,0.02179
4443.73615,0.02179
4441.80744,0.02178
4439.87874,0.02176
4437.95003,0.02172
4436.02133,0.02169
4434.09262,0.02168
4432.16392,0.02167
4430.23522,0.02162
4428.30651,0.02157
4426.37781,0.02155
4424.44910,0.02156
4422.52040,0.02157
4420.59169,0.02158
4418.66299,0.02156
4416.73428,0.02151
4414.80558,0.02148
4412.87687,0.02149
4410.94817,0.02150
4409.01946,0.02151
4407.09076,0.02150
4405.16205,0.02145
4403.23335,0.02141
4401.30464,0.02138
4399.37594,0.02133
4397.44723,0.02130
4395.51853,0.02130
4393.58982,0.02133
4391.66112,0.02134
4389.73241,0.02133
4387.80371,0.02133
4385.87500,0.02135
4383.94630,0.02134
4382.01759,0.02130
4380.08889,0.02128
4378.16018,0.02127
4376.23148,0.02124
4374.30277,0.02121
4372.37407,0.02120
4370.44536,0.02120
4368.51666,0.02119
4366.58795,0.02117
4364.65925,0.02116
4362.73054,0.02116
4360.80184,0.02114
4358.87313,0.02113
4356.94443,0.02113
4355.01572,0.02111
4353.08702,0.02108
4351.15831,0.02104
4349.22961,0.02103
4347.30090,0.02104
4345.37220,0.02107
4343.44349,0.02107
4341.51479,0.02106
4339.58608,0.02104
4337.65738,0.02101
4335.72867,0.02098
4333.79997,0.02097
4331.87126,0.02096
4329.94256,0.02096
4328.01385,0.02096
4326.08515,0.02094
4324.15644,0.02090
4322.22774,0.02085
4320.29903,0.02082
4318.37033,0.02080
4316.44162,0.02081
4314.51292,0.02082
4312.58421,0.02080
4310.65551,0.02079
4308.72680,0.02078
4306.79810,0.02077
4304.86939,0.02079
4302.94069,0.02079
4301.01199,0.02076
4299.08328,0.02073
4297.15458,0.02072
4295.22587,0.02071
4293.29717,0.02071
4291.36846,0.02070
4289.43976,0.02069
4287.51105,0.02067
4285.58235,0.02063
4283.65364,0.02059
4281.72494,0.02058
4279.79623,0.02060
4277.86753,0.02059
4275.93882,0.02056
4274.01012,0.02054
4272.08141,0.02052
4270.15271,0.02052
4268.22400,0.02054
4266.29530,0.02055
4264.36659,0.02053
4262.43789,0.02050
4260.50918,0.02046
4258.58048,0.02042
4256.65177,0.02041
4254.72307,0.02042
4252.79436,0.02045
4250.86566,0.02046
4248.93695,0.02046
4247.00825,0.02045
4245.07954,0.02043
4243.15084,0.02042
4241.22213,0.02039
4239.29343,0.02035
4237.36472,0.02032
4235.43602,0.02032
4233.50731,0.02033
4231.57861,0.02034
4229.64990,0.02034
4227.72120,0.02032
4225.79249,0.02031
4223.86379,0.02031
4221.93508,0.02030
4220.00638,0.02028
4218.07767,0.02028
4216.14897,0.02029
4214.22026,0.02028
4212.29156,0.02027
4210.36285,0.02026
4208.43415,0.02023
4206.50544,0.02023
4204.57674,0.02025
4202.64803,0.02027
4200.71933,0.02026
4198.79062,0.02023
4196.86192,0.02023
4194.93321,0.02026
4193.00451,0.02027
4191.07580,0.02028
4189.14710,0.02027
4187.21839,0.02024
4185.28969,0.02021
4183.36098,0.02020
4181.43228,0.02019
4179.50357,0.02016
4177.57487,0.02017
4175.64616,0.02019
4173.71746,0.02017
4171.78875,0.02013
4169.86005,0.02010
4167.93135,0.02008
4166.00264,0.02006
4164.07394,0.02004
4162.14523,0.02002
4160.21653,0.01999
4158.28782,0.01999
4156.35912,0.02000
4154.43041,0.02001
4152.50171,0.02000
4150.57300,0.01999
4148.64430,0.02001
4146.71559,0.02001
4144.78689,0.01998
4142.85818,0.01993
4140.92948,0.01990
4139.00077,0.01990
4137.07207,0.01991
4135.14336,0.01990
4133.21466,0.01989
4131.28595,0.01989
4129.35725,0.01990
4127.42854,0.01989
4125.49984,0.01986
4123.57113,0.01983
4121.64243,0.01983
4119.71372,0.01982
4117.78502,0.01979
4115.85631,0.01976
4113.92761,0.01975
4111.99890,0.01975
4110.07020,0.01974
4108.14149,0.01972
4106.21279,0.01971
4104.28408,0.01969
4102.35538,0.01967
4100.42667,0.01966
4098.49797,0.01965
4096.56926,0.01964
4094.64056,0.01964
4092.71185,0.01965
4090.78315,0.01965
4088.85444,0.01965
4086.92574,0.01965
4084.99703,0.01964
4083.06833,0.01963
4081.13962,0.01963
4079.21092,0.01964
4077.28221,0.01963
4075.35351,0.01961
4073.42480,0.01959
4071.49610,0.01955
4069.56739,0.01950
4067.63869,0.01950
4065.70998,0.01952
4063.78128,0.01951
4061.85257,0.01950
4059.92387,0.01951
4057.99516,0.01950
4056.06646,0.01948
4054.13775,0.01947
4052.20905,0.01946
4050.28034,0.01943
4048.35164,0.01940
4046.42293,0.01938
4044.49423,0.01937
4042.56552,0.01937
4040.63682,0.01937
4038.70812,0.01938
4036.77941,0.01937
4034.85071,0.01934
4032.92200,0.01931
4030.99330,0.01927
4029.06459,0.01924
4027.13589,0.01924
4025.20718,0.01923
4023.27848,0.01920
4021.34977,0.01916
4019.42107,0.01913
4017.49236,0.01911
4015.56366,0.01910
4013.63495,0.01908
4011.70625,0.01906
4009.77754,0.01906
4007.84884,0.01905
4005.92013,0.01903
4003.99143,0.01902
4002.06272,0.01901
4000.13402,0.01900
3998.20531,0.01899
3996.27661,0.01899
3994.34790,0.01900
3992.41920,0.01899
3990.49049,0.01896
3988.56179,0.01893
3986.63308,0.01890
3984.70438,0.01890
3982.77567,0.01891
3980.84697,0.01891
3978.91826,0.01888
3976.98956,0.01884
3975.06085,0.01879
3973.13215,0.01875
3971.20344,0.01874
3969.27474,0.01875
3967.34603,0.01875
3965.41733,0.01872
3963.48862,0.01870
3961.55992,0.01870
3959.63121,0.01869
3957.70251,0.01868
3955.77380,0.01865
3953.84510,0.01861
3951.91639,0.01859
3949.98769,0.01862
3948.05898,0.01864
3946.13028,0.01863
3944.20157,0.01861
3942.27287,0.01859
3940.34416,0.01856
3938.41546,0.01853
3936.48675,0.01850
3934.55805,0.01849
3932.62934,0.01851
3930.70064,0.01851
3928.77193,0.01851
3926.84323,0.01852
3924.91452,0.01855
3922.98582,0.01856
3921.05711,0.01855
3919.12841,0.01853
3917.19970,0.01852
3915.27100,0.01850
3913.34229,0.01847
3911.41359,0.01845
3909.48489,0.01847
3907.55618,0.01854
3905.62748,0.01862
3903.69877,0.01868
3901.77007,0.01869
3899.84136,0.01866
3897.91266,0.01862
3895.98395,0.01859
3894.05525,0.01861
3892.12654,0.01865
3890.19784,0.01867
3888.26913,0.01869
3886.34043,0.01873
3884.41172,0.01872
3882.48302,0.01866
3880.55431,0.01861
3878.62561,0.01853
3876.69690,0.01848
3874.76820,0.01849
3872.83949,0.01851
3870.91079,0.01855
3868.98208,0.01852
3867.05338,0.01845
3865.12467,0.01841
3863.19597,0.01836
3861.26726,0.01828
3859.33856,0.01823
3857.40985,0.01833
3855.48115,0.01858
3853.55244,0.01873
3851.62374,0.01856
3849.69503,0.01828
3847.76633,0.01811
3845.83762,0.01808
3843.90892,0.01809
3841.98021,0.01812
3840.05151,0.01817
3838.12280,0.01819
3836.19410,0.01809
3834.26539,0.01794
3832.33669,0.01786
3830.40798,0.01781
3828.47928,0.01775
3826.55057,0.01770
3824.62187,0.01770
3822.69316,0.01777
3820.76446,0.01782
3818.83575,0.01780
3816.90705,0.01778
3814.97834,0.01769
3813.04964,0.01754
3811.12093,0.01747
3809.19223,0.01748
3807.26352,0.01750
3805.33482,0.01748
3803.40611,0.01750
3801.47741,0.01752
3799.54870,0.01742
3797.62000,0.01731
3795.69129,0.01727
3793.76259,0.01722
3791.83388,0.01716
3789.90518,0.01713
3787.97647,0.01712
3786.04777,0.01713
3784.11906,0.01711
3782.19036,0.01709
3780.26166,0.01707
3778.33295,0.01703
3776.40425,0.01696
3774.47554,0.01694
3772.54684,0.01696
3770.61813,0.01698
3768.68943,0.01697
3766.76072,0.01694
3764.83202,0.01691
3762.90331,0.01689
3760.97461,0.01688
3759.04590,0.01687
3757.11720,0.01685
3755.18849,0.01690
3753.25979,0.01706
3751.33108,0.01720
3749.40238,0.01717
3747.47367,0.01709
3745.54497,0.01707
3743.61626,0.01697
3741.68756,0.01675
3739.75885,0.01663
3737.83015,0.01669
3735.90144,0.01675
3733.97274,0.01674
3732.04403,0.01666
3730.11533,0.01655
3728.18662,0.01648
3726.25792,0.01644
3724.32921,0.01641
3722.40051,0.01637
3720.47180,0.01632
3718.54310,0.01625
3716.61439,0.01620
3714.68569,0.01621
3712.75698,0.01627
3710.82828,0.01626
3708.89957,0.01615
3706.97087,0.01603
3705.04216,0.01596
3703.11346,0.01592
3701.18475,0.01588
3699.25605,0.01582
3697.32734,0.01577
3695.39864,0.01577
3693.46993,0.01581
3691.54123,0.01588
3689.61252,0.01594
3687.68382,0.01588
3685.75511,0.01570
3683.82641,0.01556
3681.89770,0.01553
3679.96900,0.01560
3678.04029,0.01572
3676.11159,0.01580
3674.18288,0.01576
3672.25418,0.01570
3670.32547,0.01568
3668.39677,0.01554
3666.46806,0.01532
3664.53936,0.01517
3662.61065,0.01509
3660.68195,0.01507
3658.75324,0.01510
3656.82454,0.01515
3654.89583,0.01514
3652.96713,0.01514
3651.03842,0.01522
3649.10972,0.01527
3647.18102,0.01518
3645.25231,0.01502
3643.32361,0.01489
3641.39490,0.01483
3639.46620,0.01481
3637.53749,0.01479
3635.60879,0.01479
3633.68008,0.01484
3631.75138,0.01498
3629.82267,0.01510
3627.89397,0.01506
3625.96526,0.01491
3624.03656,0.01483
3622.10785,0.01485
3620.17915,0.01490
3618.25044,0.01489
3616.32174,0.01483
3614.39303,0.01481
3612.46433,0.01482
3610.53562,0.01480
3608.60692,0.01478
3606.67821,0.01473
3604.74951,0.01466
3602.82080,0.01460
3600.89210,0.01454
3598.96339,0.01449
3597.03469,0.01447
3595.10598,0.01445
3593.17728,0.01441
3591.24857,0.01436
3589.31987,0.01436
3587.39116,0.01436
3585.46246,0.01430
3583.53375,0.01422
3581.60505,0.01415
3579.67634,0.01412
3577.74764,0.01409
3575.81893,0.01405
3573.89023,0.01402
3571.96152,0.01404
3570.03282,0.01408
3568.10411,0.01410
3566.17541,0.01406
3564.24670,0.01395
3562.31800,0.01386
3560.38929,0.01381
3558.46059,0.01379
3556.53188,0.01378
3554.60318,0.01376
3552.67447,0.01374
3550.74577,0.01373
3548.81706,0.01372
3546.88836,0.01367
3544.95965,0.01360
3543.03095,0.01356
3541.10224,0.01358
3539.17354,0.01362
3537.24483,0.01368
3535.31613,0.01373
3533.38742,0.01380
3531.45872,0.01389
3529.53001,0.01401
3527.60131,0.01414
3525.67260,0.01430
3523.74390,0.01448
3521.81519,0.01467
3519.88649,0.01487
3517.95779,0.01509
3516.02908,0.01536
3514.10038,0.01566
3512.17167,0.01599
3510.24297,0.01633
3508.31426,0.01670
3506.38556,0.01708
3504.45685,0.01750
3502.52815,0.01797
3500.59944,0.01848
3498.67074,0.01902
3496.74203,0.01959
3494.81333,0.02020
3492.88462,0.02087
3490.95592,0.02164
3489.02721,0.02254
3487.09851,0.02362
3485.16980,0.02493
3483.24110,0.02654
3481.31239,0.02859
3479.38369,0.03140
3477.45498,0.03536
3475.52628,0.04083
3473.59757,0.04771
3471.66887,0.05486
3469.74016,0.06012
3467.81146,0.06176
3465.88275,0.05979
3463.95405,0.05571
3462.02534,0.05119
3460.09664,0.04714
3458.16793,0.04378
3456.23923,0.04105
3454.31052,0.03885
3452.38182,0.03711
3450.45311,0.03576
3448.52441,0.03475
3446.59570,0.03399
3444.66700,0.03344
3442.73829,0.03312
3440.80959,0.03303
3438.88088,0.03315
3436.95218,0.03350
3435.02347,0.03407
3433.09477,0.03489
3431.16606,0.03602
3429.23736,0.03763
3427.30865,0.03991
3425.37995,0.04300
3423.45124,0.04683
3421.52254,0.05082
3419.59383,0.05405
3417.66513,0.05579
3415.73642,0.05593
3413.80772,0.05491
3411.87901,0.05322
3409.95031,0.05123
3408.02160,0.04918
3406.09290,0.04724
3404.16419,0.04558
3402.23549,0.04425
3400.30678,0.04323
3398.37808,0.04248
3396.44937,0.04202
3394.52067,0.04181
3392.59196,0.04176
3390.66326,0.04186
3388.73456,0.04209
3386.80585,0.04245
3384.87715,0.04292
3382.94844,0.04346
3381.01974,0.04411
3379.09103,0.04488
3377.16233,0.04575
3375.23362,0.04669
3373.30492,0.04772
3371.37621,0.04884
3369.44751,0.05004
3367.51880,0.05132
3365.59010,0.05268
3363.66139,0.05411
3361.73269,0.05563
3359.80398,0.05721
3357.87528,0.05886
3355.94657,0.06058
3354.01787,0.06236
3352.08916,0.06420
3350.16046,0.06606
3348.23175,0.06792
3346.30305,0.06977
3344.37434,0.07156
3342.44564,0.07327
3340.51693,0.07485
3338.58823,0.07631
3336.65952,0.07764
3334.73082,0.07881
3332.80211,0.07979
3330.87341,0.08060
3328.94470,0.08124
3327.01600,0.08171
3325.08729,0.08200
3323.15859,0.08211
3321.22988,0.08206
3319.30118,0.08186
3317.37247,0.08152
3315.44377,0.08108
3313.51506,0.08055
3311.58636,0.07992
3309.65765,0.07921
3307.72895,0.07847
3305.80024,0.07773
3303.87154,0.07700
3301.94283,0.07629
3300.01413,0.07560
3298.08542,0.07493
3296.15672,0.07427
3294.22801,0.07363
3292.29931,0.07300
3290.37060,0.07241
3288.44190,0.07185
3286.51319,0.07131
3284.58449,0.07077
3282.65578,0.07022
3280.72708,0.06969
3278.79837,0.06923
3276.86967,0.06883
3274.94096,0.06846
3273.01226,0.06811
3271.08355,0.06778
3269.15485,0.06748
3267.22614,0.06722
3265.29744,0.06699
3263.36873,0.06679
3261.44003,0.06665
3259.51132,0.06657
3257.58262,0.06652
3255.65392,0.06650
3253.72521,0.06652
3251.79651,0.06658
3249.86780,0.06670
3247.93910,0.06688
3246.01039,0.06713
3244.08169,0.06742
3242.15298,0.06776
3240.22428,0.06814
3238.29557,0.06862
3236.36687,0.06917
3234.43816,0.06975
3232.50946,0.07037
3230.58075,0.07106
3228.65205,0.07185
3226.72334,0.07271
3224.79464,0.07358
3222.86593,0.07447
3220.93723,0.07541
3219.00852,0.07638
3217.07982,0.07737
3215.15111,0.07840
3213.22241,0.07944
3211.29370,0.08046
3209.36500,0.08147
3207.43629,0.08247
3205.50759,0.08348
3203.57888,0.08447
3201.65018,0.08545
3199.72147,0.08639
3197.79277,0.08728
3195.86406,0.08808
3193.93536,0.08882
3192.00665,0.08955
3190.07795,0.09026
3188.14924,0.09090
3186.22054,0.09146
3184.29183,0.09201
3182.36313,0.09254
3180.43442,0.09305
3178.50572,0.09354
3176.57701,0.09403
3174.64831,0.09453
3172.71960,0.09505
3170.79090,0.09562
3168.86219,0.09627
3166.93349,0.09702
3165.00478,0.09785
3163.07608,0.09880
3161.14737,0.09985
3159.21867,0.10098
3157.28996,0.10221
3155.36126,0.10352
3153.43255,0.10488
3151.50385,0.10628
3149.57514,0.10773
3147.64644,0.10923
3145.71773,0.11076
3143.78903,0.11230
3141.86032,0.11380
3139.93162,0.11523
3138.00291,0.11657
3136.07421,0.11779
3134.14550,0.11885
3132.21680,0.11975
3130.28809,0.12047
3128.35939,0.12097
3126.43069,0.12128
3124.50198,0.12144
3122.57328,0.12146
3120.64457,0.12132
3118.71587,0.12101
3116.78716,0.12056
3114.85846,0.12003
3112.92975,0.11944
3111.00105,0.11876
3109.07234,0.11803
3107.14364,0.11726
3105.21493,0.11647
3103.28623,0.11569
3101.35752,0.11491
3099.42882,0.11413
3097.50011,0.11333
3095.57141,0.11254
3093.64270,0.11175
3091.71400,0.11094
3089.78529,0.11010
3087.85659,0.10927
3085.92788,0.10843
3083.99918,0.10756
3082.07047,0.10667
3080.14177,0.10577
3078.21306,0.10488
3076.28436,0.10401
3074.35565,0.10318
3072.42695,0.10234
3070.49824,0.10148
3068.56954,0.10060
3066.64083,0.09972
3064.71213,0.09886
3062.78342,0.09802
3060.85472,0.09720
3058.92601,0.09639
3056.99731,0.09557
3055.06860,0.09475
3053.13990,0.09396
3051.21119,0.09317
3049.28249,0.09238
3047.35378,0.09161
3045.42508,0.09085
3043.49637,0.09009
3041.56767,0.08932
3039.63896,0.08857
3037.71026,0.08784
3035.78155,0.08714
3033.85285,0.08644
3031.92414,0.08574
3029.99544,0.08502
3028.06673,0.08432
3026.13803,0.08362
3024.20932,0.08296
3022.28062,0.08232
3020.35191,0.08167
3018.42321,0.08101
3016.49450,0.08037
3014.56580,0.07975
3012.63709,0.07912
3010.70839,0.07850
3008.77968,0.07790
3006.85098,0.07731
3004.92227,0.07673
3002.99357,0.07618
3001.06486,0.07565
2999.13616,0.07512
2997.20746,0.07459
2995.27875,0.07408
2993.35005,0.07359
2991.42134,0.07313
2989.49264,0.07271
2987.56393,0.07229
2985.63523,0.07189
2983.70652,0.07152
2981.77782,0.07116
2979.84911,0.07080
2977.92041,0.07042
2975.99170,0.07002
2974.06300,0.06959
2972.13429,0.06914
2970.20559,0.06868
2968.27688,0.06821
2966.34818,0.06772
2964.41947,0.06722
2962.49077,0.06674
2960.56206,0.06627
2958.63336,0.06581
2956.70465,0.06535
2954.77595,0.06490
2952.84724,0.06445
2950.91854,0.06399
2948.98983,0.06351
2947.06113,0.06299
2945.13242,0.06247
2943.20372,0.06195
2941.27501,0.06145
2939.34631,0.06094
2937.41760,0.06043
2935.48890,0.05989
2933.56019,0.05935
2931.63149,0.05882
2929.70278,0.05830
2927.77408,0.05778
2925.84537,0.05728
2923.91667,0.05678
2921.98796,0.05629
2920.05926,0.05581
2918.13055,0.05537
2916.20185,0.05501
2914.27314,0.05474
2912.34444,0.05451
2910.41573,0.05427
2908.48703,0.05400
2906.55832,0.05371
2904.62962,0.05340
2902.70091,0.05307
2900.77221,0.05277
2898.84350,0.05248
2896.91480,0.05221
2894.98609,0.05198
2893.05739,0.05174
2891.12868,0.05151
2889.19998,0.05130
2887.27127,0.05111
2885.34257,0.05092
2883.41386,0.05076
2881.48516,0.05060
2879.55645,0.05046
2877.62775,0.05035
2875.69904,0.05026
2873.77034,0.05018
2871.84163,0.05010
2869.91293,0.05004
2867.98422,0.04996
2866.05552,0.04988
2864.12682,0.04980
2862.19811,0.04973
2860.26941,0.04966
2858.34070,0.04957
2856.41200,0.04947
2854.48329,0.04938
2852.55459,0.04933
2850.62588,0.04931
2848.69718,0.04934
2846.76847,0.04945
2844.83977,0.04960
2842.91106,0.04973
2840.98236,0.04982
2839.05365,0.04986
2837.12495,0.04987
2835.19624,0.04987
2833.26754,0.04986
2831.33883,0.04982
2829.41013,0.04975
2827.48142,0.04967
2825.55272,0.04958
2823.62401,0.04947
2821.69531,0.04933
2819.76660,0.04916
2817.83790,0.04899
2815.90919,0.04881
2813.98049,0.04862
2812.05178,0.04841
2810.12308,0.04818
2808.19437,0.04793
2806.26567,0.04767
2804.33696,0.04742
2802.40826,0.04717
2800.47955,0.04688
2798.55085,0.04658
2796.62214,0.04630
2794.69344,0.04604
2792.76473,0.04578
2790.83603,0.04551
2788.90732,0.04523
2786.97862,0.04497
2785.04991,0.04474
2783.12121,0.04452
2781.19250,0.04431
2779.26380,0.04411
2777.33509,0.04391
2775.40639,0.04372
2773.47768,0.04354
2771.54898,0.04336
2769.62027,0.04319
2767.69157,0.04301
2765.76286,0.04282
2763.83416,0.04262
2761.90545,0.04243
2759.97675,0.04227
2758.04804,0.04212
2756.11934,0.04199
2754.19063,0.04186
2752.26193,0.04173
2750.33322,0.04159
2748.40452,0.04146
2746.47581,0.04133
2744.54711,0.04118
2742.61840,0.04101
2740.68970,0.04082
2738.76099,0.04060
2736.83229,0.04037
2734.90359,0.04017
2732.97488,0.03997
2731.04618,0.03976
2729.11747,0.03956
2727.18877,0.03940
2725.26006,0.03926
2723.33136,0.03915
2721.40265,0.03905
2719.47395,0.03897
2717.54524,0.03893
2715.61654,0.03891
2713.68783,0.03889
2711.75913,0.03887
2709.83042,0.03884
2707.90172,0.03882
2705.97301,0.03880
2704.04431,0.03879
2702.11560,0.03877
2700.18690,0.03875
2698.25819,0.03873
2696.32949,0.03872
2694.40078,0.03871
2692.47208,0.03871
2690.54337,0.03871
2688.61467,0.03869
2686.68596,0.03865
2684.75726,0.03859
2682.82855,0.03850
2680.89985,0.03841
2678.97114,0.03831
2677.04244,0.03819
2675.11373,0.03804
2673.18503,0.03787
2671.25632,0.03769
2669.32762,0.03750
2667.39891,0.03732
2665.47021,0.03716
2663.54150,0.03704
2661.61280,0.03696
2659.68409,0.03689
2657.75539,0.03680
2655.82668,0.03669
2653.89798,0.03657
2651.96927,0.03646
2650.04057,0.03634
2648.11186,0.03623
2646.18316,0.03613
2644.25445,0.03604
2642.32575,0.03595
2640.39704,0.03585
2638.46834,0.03575
2636.53963,0.03566
2634.61093,0.03558
2632.68222,0.03548
2630.75352,0.03537
2628.82481,0.03527
2626.89611,0.03519
2624.96740,0.03514
2623.03870,0.03507
2621.10999,0.03497
2619.18129,0.03485
2617.25258,0.03475
2615.32388,0.03468
2613.39517,0.03462
2611.46647,0.03455
2609.53776,0.03447
2607.60906,0.03439
2605.68036,0.03431
2603.75165,0.03422
2601.82295,0.03411
2599.89424,0.03403
2597.96554,0.03398
2596.03683,0.03392
2594.10813,0.03383
2592.17942,0.03374
2590.25072,0.03370
2588.32201,0.03368
2586.39331,0.03363
2584.46460,0.03354
2582.53590,0.03348
2580.60719,0.03346
2578.67849,0.03343
2576.74978,0.03339
2574.82108,0.03336
2572.89237,0.03334
2570.96367,0.03329
2569.03496,0.03324
2567.10626,0.03317
2565.17755,0.03309
2563.24885,0.03301
2561.32014,0.03295
2559.39144,0.03289
2557.46273,0.03283
2555.53403,0.03275
2553.60532,0.03265
2551.67662,0.03254
2549.74791,0.03245
2547.81921,0.03235
2545.89050,0.03226
2543.96180,0.03218
2542.03309,0.03210
2540.10439,0.03200
2538.17568,0.03189
2536.24698,0.03178
2534.31827,0.03168
2532.38957,0.03159
2530.46086,0.03153
2528.53216,0.03149
2526.60345,0.03141
2524.67475,0.03132
2522.74604,0.03123
2520.81734,0.03114
2518.88863,0.03107
2516.95993,0.03104
2515.03122,0.03099
2513.10252,0.03092
2511.17381,0.03087
2509.24511,0.03085
2507.31640,0.03085
2505.38770,0.03084
2503.45899,0.03079
2501.53029,0.03070
2499.60158,0.03058
2497.67288,0.03048
2495.74417,0.03041
2493.81547,0.03035
2491.88676,0.03024
2489.95806,0.03010
2488.02935,0.02999
2486.10065,0.02992
2484.17194,0.02987
2482.24324,0.02981
2480.31453,0.02973
2478.38583,0.02964
2476.45713,0.02954
2474.52842,0.02944
2472.59972,0.02932
2470.67101,0.02920
2468.74231,0.02909
2466.81360,0.02899
2464.88490,0.02887
2462.95619,0.02875
2461.02749,0.02866
2459.09878,0.02856
2457.17008,0.02847
2455.24137,0.02840
2453.31267,0.02831
2451.38396,0.02822
2449.45526,0.02810
2447.52655,0.02796
2445.59785,0.02782
2443.66914,0.02769
2441.74044,0.02755
2439.81173,0.02741
2437.88303,0.02730
2435.95432,0.02723
2434.02562,0.02716
2432.09691,0.02709
2430.16821,0.02698
2428.23950,0.02685
2426.31080,0.02672
2424.38209,0.02660
2422.45339,0.02651
2420.52468,0.02643
2418.59598,0.02630
2416.66727,0.02616
2414.73857,0.02607
2412.80986,0.02602
2410.88116,0.02595
2408.95245,0.02582
2407.02375,0.02564
2405.09504,0.02547
2403.16634,0.02534
2401.23763,0.02525
2399.30893,0.02517
2397.38022,0.02508
2395.45152,0.02501
2393.52281,0.02496
2391.59411,0.02489
2389.66540,0.02480
2387.73670,0.02472
2385.80799,0.02468
2383.87929,0.02467
2381.95058,0.02472
2380.02188,0.02484
2378.09317,0.02505
2376.16447,0.02535
2374.23576,0.02574
2372.30706,0.02620
2370.37835,0.02667
2368.44965,0.02712
2366.52094,0.02754
2364.59224,0.02790
2362.66353,0.02815
2360.73483,0.02821
2358.80612,0.02804
2356.87742,0.02762
2354.94871,0.02700
2353.02001,0.02625
2351.09130,0.02555
2349.16260,0.02524
2347.23389,0.02547
2345.30519,0.02604
2343.37649,0.02659
2341.44778,0.02697
2339.51908,0.02717
2337.59037,0.02725
2335.66167,0.02723
2333.73296,0.02715
2331.80426,0.02703
2329.87555,0.02689
2327.94685,0.02691
2326.01814,0.02724
2324.08944,0.02759
2322.16073,0.02751
2320.23203,0.02708
2318.30332,0.02664
2316.37462,0.02628
2314.44591,0.02599
2312.51721,0.02577
2310.58850,0.02560
2308.65980,0.02547
2306.73109,0.02535
2304.80239,0.02526
2302.87368,0.02522
2300.94498,0.02521
2299.01627,0.02523
2297.08757,0.02526
2295.15886,0.02531
2293.23016,0.02543
2291.30145,0.02560
2289.37275,0.02579
2287.44404,0.02599
2285.51534,0.02615
2283.58663,0.02620
2281.65793,0.02614
2279.72922,0.02608
2277.80052,0.02610
2275.87181,0.02619
2273.94311,0.02629
2272.01440,0.02638
2270.08570,0.02648
2268.15699,0.02658
2266.22829,0.02664
2264.29958,0.02669
2262.37088,0.02678
2260.44217,0.02692
2258.51347,0.02711
2256.58476,0.02725
2254.65606,0.02726
2252.72735,0.02722
2250.79865,0.02729
2248.86994,0.02745
2246.94124,0.02765
2245.01253,0.02789
2243.08383,0.02814
2241.15512,0.02836
2239.22642,0.02854
2237.29771,0.02870
2235.36901,0.02884
2233.44030,0.02899
2231.51160,0.02915
2229.58289,0.02928
2227.65419,0.02940
2225.72548,0.02953
2223.79678,0.02966
2221.86807,0.02979
2219.93937,0.02991
2218.01066,0.03000
2216.08196,0.03010
2214.15326,0.03028
2212.22455,0.03049
2210.29585,0.03065
2208.36714,0.03078
2206.43844,0.03090
2204.50973,0.03099
2202.58103,0.03108
2200.65232,0.03114
2198.72362,0.03122
2196.79491,0.03135
2194.86621,0.03149
2192.93750,0.03164
2191.00880,0.03185
2189.08009,0.03201
2187.15139,0.03212
2185.22268,0.03218
2183.29398,0.03205
2181.36527,0.03171
2179.43657,0.03151
2177.50786,0.03143
2175.57916,0.03127
2173.65045,0.03119
2171.72175,0.03135
2169.79304,0.03161
2167.86434,0.03188
2165.93563,0.03218
2164.00693,0.03262
2162.07822,0.03300
2160.14952,0.03225
2158.22081,0.03006
2156.29211,0.02819
2154.36340,0.02761
2152.43470,0.02764
2150.50599,0.02765
2148.57729,0.02742
2146.64858,0.02699
2144.71988,0.02656
2142.79117,0.02625
2140.86247,0.02601
2138.93376,0.02573
2137.00506,0.02524
2135.07635,0.02450
2133.14765,0.02380
2131.21894,0.02341
2129.29024,0.02325
2127.36153,0.02319
2125.43283,0.02318
2123.50412,0.02314
2121.57542,0.02306
2119.64671,0.02298
2117.71801,0.02296
2115.78930,0.02302
2113.86060,0.02306
2111.93189,0.02301
2110.00319,0.02285
2108.07448,0.02267
2106.14578,0.02250
2104.21707,0.02232
2102.28837,0.02215
2100.35966,0.02200
2098.43096,0.02183
2096.50225,0.02152
2094.57355,0.02111
2092.64484,0.02088
2090.71614,0.02091
2088.78743,0.02098
2086.85873,0.02104
2084.93003,0.02111
2083.00132,0.02117
2081.07262,0.02121
2079.14391,0.02125
2077.21521,0.02131
2075.28650,0.02134
2073.35780,0.02133
2071.42909,0.02129
2069.50039,0.02131
2067.57168,0.02134
2065.64298,0.02129
2063.71427,0.02124
2061.78557,0.02127
2059.85686,0.02133
2057.92816,0.02142
2055.99945,0.02153
2054.07075,0.02173
2052.14204,0.02222
2050.21334,0.02273
2048.28463,0.02276
2046.35593,0.02253
2044.42722,0.02243
2042.49852,0.02250
2040.56981,0.02268
2038.64111,0.02292
2036.71240,0.02309
2034.78370,0.02297
2032.85499,0.02259
2030.92629,0.02229
2028.99758,0.02216
2027.06888,0.02203
2025.14017,0.02183
2023.21147,0.02164
2021.28276,0.02148
2019.35406,0.02129
2017.42535,0.02110
2015.49665,0.02097
2013.56794,0.02084
2011.63924,0.02064
2009.71053,0.02039
2007.78183,0.01997
2005.85312,0.01940
2003.92442,0.01896
2001.99571,0.01877
2000.06701,0.01867
1998.13830,0.01859
1996.20960,0.01857
1994.28089,0.01858
1992.35219,0.01857
1990.42348,0.01854
1988.49478,0.01856
1986.56607,0.01861
1984.63737,0.01880
1982.70866,0.01926
1980.77996,0.01985
1978.85125,0.01989
1976.92255,0.01911
1974.99384,0.01816
1973.06514,0.01759
1971.13643,0.01732
1969.20773,0.01712
1967.27902,0.01688
1965.35032,0.01658
1963.42161,0.01627
1961.49291,0.01589
1959.56420,0.01543
1957.63550,0.01510
1955.70679,0.01499
1953.77809,0.01488
1951.84939,0.01467
1949.92068,0.01443
1947.99198,0.01422
1946.06327,0.01405
1944.13457,0.01387
1942.20586,0.01365
1940.27716,0.01338
1938.34845,0.01314
1936.41975,0.01295
1934.49104,0.01278
1932.56234,0.01262
1930.63363,0.01245
1928.70493,0.01227
1926.77622,0.01208
1924.84752,0.01192
1922.91881,0.01185
1920.99011,0.01185
1919.06140,0.01184
1917.13270,0.01176
1915.20399,0.01162
1913.27529,0.01146
1911.34658,0.01130
1909.41788,0.01118
1907.48917,0.01107
1905.56047,0.01095
1903.63176,0.01082
1901.70306,0.01070
1899.77435,0.01060
1897.84565,0.01050
1895.91694,0.01040
1893.98824,0.01031
1892.05953,0.01025
1890.13083,0.01018
1888.20212,0.01007
1886.27342,0.00996
1884.34471,0.00987
1882.41601,0.00978
1880.48730,0.00970
1878.55860,0.00963
1876.62989,0.00955
1874.70119,0.00948
1872.77248,0.00943
1870.84378,0.00939
1868.91507,0.00932
1866.98637,0.00921
1865.05766,0.00912
1863.12896,0.00905
1861.20025,0.00899
1859.27155,0.00889
1857.34284,0.00879
1855.41414,0.00871
1853.48543,0.00866
1851.55673,0.00860
1849.62802,0.00852
1847.69932,0.00847
1845.77061,0.00845
1843.84191,0.00840
1841.91320,0.00825
1839.98450,0.00811
1838.05579,0.00805
1836.12709,0.00799
1834.19838,0.00794
1832.26968,0.00791
1830.34097,0.00790
1828.41227,0.00785
1826.48356,0.00777
1824.55486,0.00769
1822.62616,0.00761
1820.69745,0.00748
1818.76875,0.00725
1816.84004,0.00702
1814.91134,0.00694
1812.98263,0.00700
1811.05393,0.00706
1809.12522,0.00704
1807.19652,0.00699
1805.26781,0.00698
1803.33911,0.00699
1801.41040,0.00701
1799.48170,0.00702
1797.55299,0.00702
1795.62429,0.00705
1793.69558,0.00712
1791.76688,0.00715
1789.83817,0.00715
1787.90947,0.00717
1785.98076,0.00724
1784.05206,0.00732
1782.12335,0.00739
1780.19465,0.00746
1778.26594,0.00753
1776.33724,0.00764
1774.40853,0.00783
1772.47983,0.00800
1770.55112,0.00806
1768.62242,0.00804
1766.69371,0.00802
1764.76501,0.00803
1762.83630,0.00805
1760.90760,0.00802
1758.97889,0.00796
1757.05019,0.00791
1755.12148,0.00789
1753.19278,0.00793
1751.26407,0.00800
1749.33537,0.00800
1747.40666,0.00796
1745.47796,0.00796
1743.54925,0.00803
1741.62055,0.00814
1739.69184,0.00825
1737.76314,0.00841
1735.83443,0.00870
1733.90573,0.00899
1731.97702,0.00912
1730.04832,0.00921
1728.11961,0.00944
1726.19091,0.00976
1724.26220,0.01015
1722.33350,0.01059
1720.40479,0.01116
1718.47609,0.01184
1716.54738,0.01244
1714.61868,0.01289
1712.68997,0.01337
1710.76127,0.01399
1708.83256,0.01474
1706.90386,0.01559
1704.97515,0.01650
1703.04645,0.01752
1701.11774,0.01866
1699.18904,0.01974
1697.26033,0.02079
1695.33163,0.02191
1693.40293,0.02311
1691.47422,0.02456
1689.54552,0.02641
1687.61681,0.02869
1685.68811,0.03140
1683.75940,0.03436
1681.83070,0.03746
1679.90199,0.04085
1677.97329,0.04459
1676.04458,0.04850
1674.11588,0.05251
1672.18717,0.05680
1670.25847,0.06170
1668.32976,0.06722
1666.40106,0.07327
1664.47235,0.07977
1662.54365,0.08643
1660.61494,0.09290
1658.68624,0.09909
1656.75753,0.10515
1654.82883,0.11112
1652.90012,0.11652
1650.97142,0.12068
1649.04271,0.12364
1647.11401,0.12571
1645.18530,0.12694
1643.25660,0.12771
1641.32789,0.12864
1639.39919,0.13006
1637.47048,0.13208
1635.54178,0.13452
1633.61307,0.13709
1631.68437,0.13973
1629.75566,0.14242
1627.82696,0.14493
1625.89825,0.14702
1623.96955,0.14849
1622.04084,0.14911
1620.11214,0.14884
1618.18343,0.14768
1616.25473,0.14558
1614.32602,0.14270
1612.39732,0.13946
1610.46861,0.13620
1608.53991,0.13310
1606.61120,0.13034
1604.68250,0.12807
1602.75379,0.12637
1600.82509,0.12535
1598.89638,0.12521
1596.96768,0.12613
1595.03897,0.12817
1593.11027,0.13124
1591.18156,0.13508
1589.25286,0.13939
1587.32415,0.14383
1585.39545,0.14815
1583.46674,0.15214
1581.53804,0.15572
1579.60933,0.15887
1577.68063,0.16154
1575.75192,0.16359
1573.82322,0.16509
1571.89451,0.16647
1569.96581,0.16799
1568.03710,0.16964
1566.10840,0.17159
1564.17970,0.17415
1562.25099,0.17752
1560.32229,0.18172
1558.39358,0.18633
1556.46488,0.19099
1554.53617,0.19572
1552.60747,0.20048
1550.67876,0.20498
1548.75006,0.20896
1546.82135,0.21230
1544.89265,0.21494
1542.96394,0.21691
1541.03524,0.21831
1539.10653,0.21914
1537.17783,0.21951
1535.24912,0.21972
1533.32042,0.21984
1531.39171,0.21971
1529.46301,0.21928
1527.53430,0.21846
1525.60560,0.21702
1523.67689,0.21483
1521.74819,0.21178
1519.81948,0.20777
1517.89078,0.20299
1515.96207,0.19766
1514.03337,0.19204
1512.10466,0.18640
1510.17596,0.18104
1508.24725,0.17603
1506.31855,0.17114
1504.38984,0.16630
1502.46114,0.16175
1500.53243,0.15758
1498.60373,0.15366
1496.67502,0.14992
1494.74632,0.14636
1492.81761,0.14316
1490.88891,0.14034
1488.96020,0.13787
1487.03150,0.13586
1485.10279,0.13460
1483.17409,0.13445
1481.24538,0.13581
1479.31668,0.13898
1477.38797,0.14406
1475.45927,0.15074
1473.53056,0.15837
1471.60186,0.16595
1469.67315,0.17249
1467.74445,0.17730
1465.81574,0.17998
1463.88704,0.18060
1461.95833,0.17988
1460.02963,0.17881
1458.10092,0.17807
1456.17222,0.17790
1454.24351,0.17859
1452.31481,0.18058
1450.38610,0.18410
1448.45740,0.18914
1446.52869,0.19547
1444.59999,0.20280
1442.67128,0.21082
1440.74258,0.21922
1438.81387,0.22755
1436.88517,0.23512
1434.95646,0.24099
1433.02776,0.24456
1431.09906,0.24585
1429.17035,0.24525
1427.24165,0.24337
1425.31294,0.24077
1423.38424,0.23786
1421.45553,0.23491
1419.52683,0.23199
1417.59812,0.22905
1415.66942,0.22613
1413.74071,0.22325
1411.81201,0.22028
1409.88330,0.21717
1407.95460,0.21402
1406.02589,0.21094
1404.09719,0.20791
1402.16848,0.20496
1400.23978,0.20205
1398.31107,0.19918
1396.38237,0.19632
1394.45366,0.19344
1392.52496,0.19053
1390.59625,0.18769
1388.66755,0.18494
1386.73884,0.18227
1384.81014,0.17974
1382.88143,0.17745
1380.95273,0.17544
1379.02402,0.17376
1377.09532,0.17250
1375.16661,0.17177
1373.23791,0.17167
1371.30920,0.17232
1369.38050,0.17378
1367.45179,0.17598
1365.52309,0.17858
1363.59438,0.18102
1361.66568,0.18280
1359.73697,0.18380
1357.80827,0.18425
1355.87956,0.18448
1353.95086,0.18467
1352.02215,0.18483
1350.09345,0.18498
1348.16474,0.18510
1346.23604,0.18518
1344.30733,0.18517
1342.37863,0.18507
1340.44992,0.18491
1338.52122,0.18468
1336.59251,0.18442
1334.66381,0.18421
1332.73510,0.18412
1330.80640,0.18415
1328.87769,0.18427
1326.94899,0.18440
1325.02028,0.18449
1323.09158,0.18444
1321.16287,0.18416
1319.23417,0.18361
1317.30546,0.18283
1315.37676,0.18193
1313.44805,0.18104
1311.51935,0.18027
1309.59064,0.17957
1307.66194,0.17877
1305.73323,0.17766
1303.80453,0.17615
1301.87583,0.17425
1299.94712,0.17207
1298.01842,0.16972
1296.08971,0.16731
1294.16101,0.16493
1292.23230,0.16266
1290.30360,0.16058
1288.37489,0.15875
1286.44619,0.15717
1284.51748,0.15584
1282.58878,0.15470
1280.66007,0.15371
1278.73137,0.15281
1276.80266,0.15199
1274.87396,0.15129
1272.94525,0.15075
1271.01655,0.15036
1269.08784,0.15008
1267.15914,0.14985
1265.23043,0.14961
1263.30173,0.14930
1261.37302,0.14888
1259.44432,0.14832
1257.51561,0.14766
1255.58691,0.14689
1253.65820,0.14605
1251.72950,0.14512
1249.80079,0.14414
1247.87209,0.14311
1245.94338,0.14205
1244.01468,0.14100
1242.08597,0.13996
1240.15727,0.13892
1238.22856,0.13789
1236.29986,0.13685
1234.37115,0.13580
1232.44245,0.13472
1230.51374,0.13363
1228.58504,0.13256
1226.65633,0.13153
1224.72763,0.13052
1222.79892,0.12951
1220.87022,0.12855
1218.94151,0.12772
1217.01281,0.12702
1215.08410,0.12648
1213.15540,0.12612
1211.22669,0.12598
1209.29799,0.12612
1207.36928,0.12655
1205.44058,0.12731
1203.51187,0.12834
1201.58317,0.12948
1199.65446,0.13054
1197.72576,0.13138
1195.79705,0.13194
1193.86835,0.13226
1191.93964,0.13245
1190.01094,0.13261
1188.08223,0.13271
1186.15353,0.13262
1184.22482,0.13230
1182.29612,0.13188
1180.36741,0.13156
1178.43871,0.13148
1176.51000,0.13164
1174.58130,0.13183
1172.65260,0.13169
1170.72389,0.13099
1168.79519,0.12967
1166.86648,0.12787
1164.93778,0.12582
1163.00907,0.12377
1161.08037,0.12187
1159.15166,0.12024
1157.22296,0.11891
1155.29425,0.11783
1153.36555,0.11692
1151.43684,0.11608
1149.50814,0.11525
1147.57943,0.11442
1145.65073,0.11361
1143.72202,0.11283
1141.79332,0.11208
1139.86461,0.11136
1137.93591,0.11067
1136.00720,0.11000
1134.07850,0.10936
1132.14979,0.10874
1130.22109,0.10815
1128.29238,0.10762
1126.36368,0.10718
1124.43497,0.10686
1122.50627,0.10673
1120.57756,0.10692
1118.64886,0.10750
1116.72015,0.10834
1114.79145,0.10920
1112.86274,0.10992
1110.93404,0.11046
1109.00533,0.11074
1107.07663,0.11063
1105.14792,0.11011
1103.21922,0.10935
1101.29051,0.10855
1099.36181,0.10776
1097.43310,0.10697
1095.50440,0.10620
1093.57569,0.10548
1091.64699,0.10481
1089.71828,0.10419
1087.78958,0.10359
1085.86087,0.10298
1083.93217,0.10240
1082.00346,0.10181
1080.07476,0.10118
1078.14605,0.10055
1076.21735,0.09992
1074.28864,0.09932
1072.35994,0.09876
1070.43123,0.09822
1068.50253,0.09768
1066.57382,0.09714
1064.64512,0.09663
1062.71641,0.09617
1060.78771,0.09576
1058.85900,0.09543
1056.93030,0.09520
1055.00159,0.09508
1053.07289,0.09508
1051.14418,0.09530
1049.21548,0.09589
1047.28677,0.09706
1045.35807,0.09900
1043.42936,0.10188
1041.50066,0.10582
1039.57196,0.11073
1037.64325,0.11621
1035.71455,0.12161
1033.78584,0.12635
1031.85714,0.13015
1029.92843,0.13307
1027.99973,0.13531
1026.07102,0.13694
1024.14232,0.13790
1022.21361,0.13813
1020.28491,0.13760
1018.35620,0.13642
1016.42750,0.13473
1014.49879,0.13270
1012.57009,0.13050
1010.64138,0.12821
1008.71268,0.12586
1006.78397,0.12347
1004.85527,0.12104
1002.92656,0.11858
1000.99786,0.11616
999.06915,0.11385
997.14045,0.11174
995.21174,0.10993
993.28304,0.10846
991.35433,0.10731
989.42563,0.10635
987.49692,0.10545
985.56822,0.10454
983.63951,0.10357
981.71081,0.10253
979.78210,0.10145
977.85340,0.10030
975.92469,0.09908
973.99599,0.09783
972.06728,0.09661
970.13858,0.09549
968.20987,0.09447
966.28117,0.09355
964.35246,0.09273
962.42376,0.09199
960.49505,0.09131
958.56635,0.09066
956.63764,0.09002
954.70894,0.08936
952.78023,0.08867
950.85153,0.08795
948.92282,0.08723
946.99412,0.08653
945.06541,0.08585
943.13671,0.08516
941.20800,0.08450
939.27930,0.08388
937.35059,0.08331
935.42189,0.08276
933.49318,0.08224
931.56448,0.08176
929.63577,0.08131
927.70707,0.08092
925.77836,0.08055
923.84966,0.08018
921.92095,0.07982
919.99225,0.07946
918.06354,0.07915
916.13484,0.07889
914.20613,0.07867
912.27743,0.07846
910.34873,0.07826
908.42002,0.07807
906.49132,0.07790
904.56261,0.07774
902.63391,0.07759
900.70520,0.07746
898.77650,0.07737
896.84779,0.07735
894.91909,0.07735
892.99038,0.07735
891.06168,0.07736
889.13297,0.07740
887.20427,0.07744
885.27556,0.07748
883.34686,0.07761
881.41815,0.07780
879.48945,0.07793
877.56074,0.07799
875.63204,0.07802
873.70333,0.07802
871.77463,0.07798
869.84592,0.07793
867.91722,0.07783
865.98851,0.07769
864.05981,0.07752
862.13110,0.07735
860.20240,0.07723
858.27369,0.07713
856.34499,0.07701
854.41628,0.07687
852.48758,0.07681
850.55887,0.07683
848.63017,0.07692
846.70146,0.07705
844.77276,0.07726
842.84405,0.07763
840.91535,0.07817
838.98664,0.07888
837.05794,0.07981
835.12923,0.08102
833.20053,0.08266
831.27182,0.08489
829.34312,0.08793
827.41441,0.09210
825.48571,0.09778
823.55700,0.10560
821.62830,0.11639
819.69959,0.13082
817.77089,0.14903
815.84218,0.16999
813.91348,0.19109
811.98477,0.20836
810.05607,0.21811
808.12736,0.21884
806.19866,0.21176
804.26995,0.20028
802.34125,0.18857
800.41254,0.17859
798.48384,0.16940
796.55513,0.16015
794.62643,0.15192
792.69772,0.14585
790.76902,0.14191
788.84031,0.13936
786.91161,0.13760
784.98290,0.13631
783.05420,0.13541
781.12550,0.13493
779.19679,0.13484
777.26809,0.13511
775.33938,0.13568
773.41068,0.13633
771.48197,0.13677
769.55327,0.13685
767.62456,0.13668
765.69586,0.13637
763.76715,0.13592
761.83845,0.13526
759.90974,0.13425
757.98104,0.13285
756.05233,0.13124
754.12363,0.12972
752.19492,0.12847
750.26622,0.12719
748.33751,0.12531
746.40881,0.12289
744.48010,0.12070
742.55140,0.11986
740.62269,0.12119
738.69399,0.12453
736.76528,0.12860
734.83658,0.13196
732.90787,0.13405
730.97917,0.13500
729.05046,0.13517
727.12176,0.13498
725.19305,0.13472
723.26435,0.13448
721.33564,0.13426
719.40694,0.13403
717.47823,0.13378
715.54953,0.13363
713.62082,0.13363
711.69212,0.13374
709.76341,0.13392
707.83471,0.13414
705.90600,0.13438
703.97730,0.13457
702.04859,0.13475
700.11989,0.13496
698.19118,0.13529
696.26248,0.13571
694.33377,0.13613
692.40507,0.13649
690.47636,0.13683
688.54766,0.13713
686.61895,0.13732
684.69025,0.13743
682.76154,0.13773
680.83284,0.13878
678.90413,0.14095
676.97543,0.14365
675.04672,0.14559
673.11802,0.14633
671.18931,0.14666
669.26061,0.14723
667.33190,0.14757
665.40320,0.14733
663.47449,0.14715
661.54579,0.14745
659.61708,0.14794
657.68838,0.14847
655.75967,0.14919
653.83097,0.15016
651.90226,0.15116
649.97356,0.15206
648.04486,0.15309
646.11615,0.15452
644.18745,0.15621
642.25874,0.15787
640.33004,0.15946
638.40133,0.16118
636.47263,0.16315
634.54392,0.16517
632.61522,0.16704
630.68651,0.16901
628.75781,0.17144
626.82910,0.17413
624.90040,0.17658
622.97169,0.17861
621.04299,0.18070
619.11428,0.18335
617.18558,0.18603
615.25687,0.18838
613.32817,0.19069
611.39946,0.19271
609.47076,0.19375
607.54205,0.19355
605.61335,0.19265
603.68464,0.19095
601.75594,0.18741
599.82723,0.18211
